start[seconds]	end[kBq/cc]	NAC.LModel	NAC.RModel	Striatum.LModel	Striatum.RModel	ACC.LModel	ACC.RModel	mPFC.LModel	mPFC.RModel	MCortex.LModel	MCortex.RModel	oFC.LModel	oFC.RModel	Midbrain.LModel	Midbrain.RModel	VTA.LModel	VTA.RModel	Thal.LModel	Thal.RModel	DMS.RModel	DMS.LModel	VLS.RModel	VLS.LModel	
0.0	10.0	110.98735781430545	103.68089254126888	101.08979259078323	98.40083168990327	75.47674682965656	71.24919679020434	2.589801444526026	70.0281088091734	50.41275643349793	95.98529278802829	111.77272653274647	73.88683253280873	138.15826447192333	157.82605478381475	112.89517636635317	173.41862396547162	110.41602326334024	138.2253887889758	0.455916171441234	35.830664146362494	57.94530951193347	1.8765645936544675
10.0	20.0	285.6548251319421	282.6334561676977	244.8679887256149	253.91961587592198	229.8499088176223	239.77101388461335	159.70789082556115	266.69552781885835	186.6280033375986	238.03426312660173	292.9987681645559	231.43128421812838	308.21562910235104	354.7214426431736	269.7555036262759	305.89664796181046	281.5027757861198	337.7239134140606	103.68212020786433	197.3085715690136	209.27021206299455	130.91757133398517
20.0	30.0	313.53192470822023	312.98391504499205	292.55737658140464	298.51852182005246	279.36919822200724	295.3319211055841	299.57863416808436	313.52348649538976	231.0784998115719	267.49649552608315	340.7351534151677	273.354632975463	368.51790405529056	407.2247821730942	318.5096427254838	356.25954199395846	341.2122006782228	396.9457423589143	228.1983559261579	269.5774218797675	264.97561871166795	232.4736536390639
30.0	40.0	323.03554401582994	324.23522305348536	327.2913503377324	328.2492471784116	310.7202860600489	321.8999173187162	344.43186813629575	330.0611277129031	260.4080765730365	283.5400864130048	360.2723397656231	296.10939235865783	411.748627562425	440.79710937062197	352.18715341634197	390.6427638552778	383.7983476630933	433.88628803719206	269.7643115615878	306.41114317000597	300.22340797668875	274.7133648658287
40.0	50.0	328.8147342096986	331.5619528997499	352.4015216806714	350.00425019713174	334.1004035383604	341.0047808144165	375.8258139933218	346.101707044776	283.8218385111097	294.359952992115	369.8662648147124	312.6603970840796	442.0333506534254	463.2888515438209	376.33235349144525	409.3791356518917	415.7656585976938	458.742874089729	300.8932913069637	336.6294279490424	328.5983430129973	309.124260131249
50.0	60.0	328.133799645572	331.79271702137373	368.0828112796247	362.73086046788086	347.21638874537797	349.5297141224281	395.2409085816339	354.39392952409275	297.7431036231629	298.6404704742335	368.8000288569351	320.2528720392865	461.0467169512446	475.359615656883	390.91539396762505	419.3669552021823	436.5262534101072	471.66532482134807	323.13258324510394	354.5671713413461	346.51254359523057	333.39025141219395
60.0	80.0	330.7567512808656	335.002220208106	386.2628627690216	378.3753541011123	361.79332491348043	358.6868105828661	410.5631142638471	367.0484515445232	313.2836724750781	305.62847553469356	365.5748009872548	329.45183310974505	482.7611813330833	491.0201420533279	408.2200453014873	429.327929726639	460.92309232444757	486.58337962661136	343.1163311337983	374.18679851711477	367.08225667136503	358.51906862833664
80.0	100.0	337.0715030961725	341.5839631597395	404.4445870217216	395.1280560212588	376.2757633930347	368.4744253011955	425.8913878494633	383.66331453281606	328.3782364339484	314.75483541648333	361.4474259701437	339.8116789602498	503.7948325259912	508.1209531614911	425.64873768783696	437.1813010653405	485.62392584362044	501.9157044216524	363.57992932584165	394.11170794190417	388.10525079594106	384.8804048882506
100.0	120.0	342.98009983977016	347.4438831253892	416.61320313748115	406.80374052326215	385.70948934986785	375.2593139952632	436.35340057434087	396.6869341553065	337.8255838133615	321.8274809375061	357.1190149593792	347.20813248083556	516.78423715457	519.5052304922251	436.6789746657652	439.8038810416135	502.24170595919753	511.94883712835065	378.2392904185738	407.7326060421451	402.6379115958145	404.1234306910154
120.0	140.0	347.2453459612801	351.4890351175787	424.21710301593055	414.17791717526063	391.351977204547	379.5352694848517	442.9408351311941	405.9190577394071	343.08772839752805	326.5385022076529	352.64754221375216	351.86461518193425	523.5801377242494	525.7896623857573	442.56384821214897	438.7122072522461	512.446387939871	517.5082152324819	388.47098234270106	416.66163626786187	412.2527334877106	417.7887973744611
140.0	160.0	349.68703543211313	353.5836594903241	428.36984965093103	418.0020498898833	394.01448558215566	381.6160001361904	446.2017731648888	411.7837793713085	345.1156547907975	329.06722518421367	347.9859928088092	354.07644699794486	525.6327514099344	527.7879386434479	444.3171349089489	435.1344913272242	517.6795324855443	519.4470081057406	395.1189157371961	421.8682658335013	417.98863579352457	426.8446892273952
160.0	180.0	352.19072188987997	355.61877389142376	431.28292936191195	420.4969899937549	395.73518630273713	383.3296348007879	447.9303707453596	416.4833256023557	345.843077195136	331.18080540813025	344.8994513845611	355.631080490099	525.9086962487138	528.6151558238302	444.52823371317515	431.80772732893377	520.6416456752686	520.4880934446202	399.76826299323477	425.4626056905542	421.9904446897635	433.1617703474897
180.0	240.0	359.76777190197095	362.1634075241224	438.1571591500992	425.9184809260223	400.81484853105616	389.4705735104153	453.42647774024647	426.5816704415379	348.069390575086	336.8925593176628	345.94155767537694	360.2932628217993	527.2350152651534	531.8606736452563	445.38893903245616	429.9833744399551	526.0147750161843	525.0680022686652	409.20752230765396	433.46322827841897	430.03795177406334	443.8583552579588
240.0	300.0	372.773378471342	373.69556126838006	450.3479805646238	435.04248003528687	410.80552131325356	401.4259792084717	464.97290093679226	442.31671405494984	353.74188746344913	346.6681337909372	353.9842410030444	368.95579979571653	531.2980621092507	538.802303087635	448.2188073108154	432.67019923732835	534.8018188900393	534.7165195870641	425.1580240919885	447.70908605041643	443.4824648175066	459.5847599381122
300.0	360.0	385.8253845970283	385.39346029339555	463.6884234447008	444.7061799608706	422.12052948255285	414.4035540540134	478.0757941423932	457.8068417359067	361.60965384910253	356.6495409629128	364.8697828831567	378.221020435348	537.2349633805483	547.0406059435805	452.48399708435704	438.80012004994563	544.4412618920362	545.7915371962044	442.0553135818043	463.4757602235923	458.03817142800006	475.10850719502434
360.0	420.0	400.35430633796875	398.6627470931688	478.8335432431448	456.18501028873936	435.1762922797546	428.87357843273395	492.86819621347524	474.7193598539172	371.9058096901851	368.05372725536205	377.86550585310425	388.998016806277	546.3353222723515	558.2295695452548	459.484135280355	448.23620611350566	556.478797250168	559.4270836132362	460.1076542329324	481.01840719768006	474.3672596574461	491.60564022601477
420.0	480.0	416.09575318927074	413.2750899130556	495.80777336430936	469.63961354027464	450.01140226681923	444.8876315633155	509.8737277071269	493.1882344216153	384.433783455641	380.78329949043695	392.3243357706708	401.37009290452477	558.6216477782909	572.2675614445304	469.2528931663249	460.1721694905903	571.2362681958446	575.6011443509616	479.8458739490299	500.48778134199154	492.62347682003264	509.9202487827252
480.0	540.0	429.4864733270709	425.64329463875794	511.0370766885226	481.56069989509206	463.2442907174259	459.0310070278831	525.3518538638075	509.51751371086516	396.0477595097147	391.6990904888611	404.333491454728	412.1988956985368	569.4441939253293	584.3230595747928	477.857815975244	469.927040397726	584.5313423766311	589.6171614512963	498.32410211671566	518.4312324972157	509.4548697177781	527.1232944277783
540.0	660.0	444.4720015861134	439.1290440562209	527.6073467605562	493.7765079535421	477.3381840085871	474.4386560759312	541.7983431521943	528.1229549104968	408.7305320245208	403.44825315525816	416.6170564940757	423.4266518911486	579.0974690601213	595.5326916085943	485.3938480522478	478.27178966808583	597.7496685264912	603.4289059719933	519.8788338260197	538.9147083275252	528.579936623458	546.7291291921
660.0	780.0	460.38149004170594	453.16616117530845	544.4054791907769	505.5434600883818	491.508726099762	490.4457290384867	558.301857220595	547.6443478785196	421.6763691280744	415.41913951691356	429.61110765216466	434.57035668453227	587.3246557531371	605.6515054332406	491.7166555775179	485.69780403126504	609.9415340228124	616.6002072420162	542.8078387620428	560.4584893415914	548.4905733665041	566.8012947253121
780.0	900.0	471.69696771806025	462.81869037575564	555.9262492909645	512.8340172362819	501.04759903727773	501.6644051224203	569.4799265153875	561.6058414996669	430.68626039773443	423.43747480206684	438.6299066995543	441.7526031509627	591.2219113815682	611.0005750054844	494.52802732475055	489.3984784674102	617.0200342149802	624.4993127385919	560.0017487005858	576.261717628304	562.8573924900176	581.0626224456078
900.0	1020.0	482.1984596649618	471.8865132728502	566.4005558604833	519.7872407241406	509.86605588937806	512.006480426355	579.6894500149397	574.2492426729403	439.0711831323111	430.96181306728965	447.57863357431626	448.596876276186	595.8436792322775	616.8645180726323	498.0948062360811	494.0205718100404	623.9169876043782	632.367143181611	575.1447768910027	590.3596869114634	575.6668438851823	593.449883345898
1020.0	1140.0	486.7668523401096	475.23295346761944	570.7855039553327	521.2942442917642	513.1617054439815	516.4822877086957	583.9107780850959	580.4430646178589	442.73163800241724	433.4878666153278	450.3860219336988	450.4550714704946	594.4468074713882	616.061791978432	496.6514193638916	492.52263654466503	624.7104014342739	633.2770480556117	584.5309019387531	598.2592538669277	582.4990835065047	600.2816002578253
1140.0	1260.0	489.22018335837373	476.58929534949084	571.97331949038	520.2654689237202	513.7205723748283	518.3052022505032	584.6124386634409	583.4162679087124	443.7994305796456	434.0855683239306	451.73642267128974	450.2368996139137	590.5456405110015	612.8860407252637	493.2159136515582	489.6262160574832	622.3106334615728	631.4532174934025	589.650350648105	602.2320857275203	585.5918112815948	602.8195938034441
1260.0	1380.0	490.5498118174306	477.04656219990466	572.4206559021774	518.9297633536354	513.7260664205432	519.2804135490067	584.8223777281669	585.1885396185793	444.42448805975886	434.01848886271273	452.3735259347059	449.58116907746444	587.0878425831054	609.8031304319952	490.1730759960318	486.9638165472178	619.9101679223563	629.404474674671	593.5589973254566	605.0915053886184	587.6802953085474	604.4453492596057
1380.0	1500.0	489.98359400418366	475.7554896177723	570.746022411859	515.9417228736493	511.87146950800206	518.2505845096609	582.8537836026668	584.7071786620746	443.36651263446436	432.4264776935255	451.19997460885844	447.41029713559965	582.040374837191	604.9892742394683	485.85230946104167	482.83521773909155	615.6582908257901	625.3621164424469	594.8835489387869	605.4323701758814	587.4189287142581	603.7390113670875
1500.0	1800.0	484.5087639381251	469.35587625681404	562.9207473260086	506.76967878221075	504.35369124737355	511.8572941759339	574.5215642801024	578.5208975621878	437.606910484942	426.01031021859455	445.1704172533026	440.0428171608822	569.3604912606388	592.3687405512977	475.106178878996	472.28338682794043	603.7874023982129	613.625929178925	591.2856718234347	600.2335357066966	581.4654992768213	597.0654163334448
1800.0	2100.0	474.02360618015405	458.1006945425997	549.014042649798	492.3219345514999	491.46913648231856	500.06569897213956	559.9850673083164	566.0865172726769	427.103676284749	415.14961915222756	434.81408633026234	428.10124468516574	551.1118544174742	573.9651708380312	459.8063918854676	457.38516318546436	585.6243408076604	595.6790791109541	581.2808689858379	588.5290128555591	569.0953418193147	583.6698247287202
2100.0	2400.0	460.2427229727181	444.0770220169734	532.0984311910158	475.9231873324961	475.9874276677193	485.12744064761125	542.5696591422234	549.9049519083472	414.3729236839949	402.0561547793098	421.5021177992006	414.1380395168401	531.5089714263114	553.8321647976964	443.42816588628034	441.0062242597668	565.6464889023164	575.4171811640077	566.6036536063178	572.6231255581383	553.2188003192454	566.8106293832255
2400.0	2700.0	442.61404642259765	426.47735780993304	510.8952916896671	455.9774873654996	456.8444392947842	466.24175324926034	520.8451882734304	529.014479007406	398.0330062172125	385.8252089219802	404.82303955238103	397.0855247623086	508.1428061187489	529.7334004188647	423.88634354645853	421.523552956007	541.5136172803809	551.0205862144767	546.721209443385	551.5664283091581	532.3720705089116	545.1519052896127
2700.0	3000.0	422.1670694984839	406.3050311298462	486.8529570463905	433.5169915605918	435.06764098554373	444.46230160023487	496.01616382695715	504.7130790724224	379.52456917169513	367.32774809398757	385.7171050855768	377.79900487393274	482.3184261545519	502.87595106127554	402.1627837203746	400.02788198149204	514.5365106594813	523.6483562397335	523.0058666850337	527.0222646482803	508.3197606770764	520.0587987692358
3000.0	3300.0	405.4765927433036	390.1075282120693	467.1011885190186	415.8942855042793	417.4273439817229	426.6935819541421	475.86791301468025	484.50180863836204	364.12978481116505	352.56130685235314	370.712442857329	362.50910146646146	462.8135111224859	482.6686646379505	386.0052662528849	384.2389992914045	493.4713300752364	502.508288602204	502.3143893808174	505.99429684177454	487.8022477322192	498.7845977334526
3300.0	3600.0	390.10224282794763	375.28418771077105	449.4992622847596	400.20846760775987	401.6754378369336	410.5330260599158	457.8897685605128	466.21157885859066	350.6746227695738	339.17744187774366	356.57124075955403	348.7740993749364	445.6562589476313	464.5770597055368	371.641240870089	369.8489177337562	475.0046094714968	483.5675433083688	483.635386113019	487.0880158876548	469.6047382612745	480.07820262751045
