start[seconds]	end[kBq/cc]	NAC.LModel	NAC.RModel	Striatum.LModel	Striatum.RModel	ACC.LModel	ACC.RModel	mPFC.LModel	mPFC.RModel	MCortex.LModel	MCortex.RModel	oFC.LModel	oFC.RModel	Midbrain.LModel	Midbrain.RModel	VTA.LModel	VTA.RModel	Thal.LModel	Thal.RModel	DMS.RModel	DMS.LModel	VLS.RModel	VLS.LModel	
0.0	10.0	65.08299280819566	82.31271676887528	105.87900140128441	102.8235429255165	87.61838835027658	87.95906105301171	42.40061771934084	94.80010918560133	61.714763810435116	104.98423086842382	63.32379588672694	74.73399071456168	142.79275305201259	167.54820386696164	121.40255866148533	157.366698863867	115.5945879641503	132.28109580437354	2.7668538460030727	38.71534890938332	40.34501638373407	38.61386973016066
10.0	20.0	186.71984421743466	198.76393882362254	230.442131810854	230.01777921993624	211.08837004697386	205.34087518640726	210.746709602259	218.92207067942505	180.9833440820104	185.90052536300533	200.35708905368986	194.96241160451422	295.56972384354043	300.5570718229901	252.86312834153213	269.7629513074506	275.63720725501156	292.02557782787744	136.2831275995352	190.21640165661353	192.5003028584678	184.951252755275
20.0	30.0	225.89136633003704	240.99493825849558	276.73200847564806	276.327932239819	256.9549332519411	249.20296739164223	284.7055457445211	263.6267897484012	218.9762175236062	219.63477049340113	250.36165815830975	234.3789183234895	356.0672986649314	363.0031228612554	303.0382624980814	322.7415896447982	335.3708465651697	353.1697553926658	216.35585419201712	252.12692981448203	251.46027219603812	243.9436764853635
30.0	40.0	256.1290510958072	272.4695190318968	313.24854733313623	312.2963420795413	290.72506387731295	281.98232148679614	326.1343213896069	298.8104620696063	248.01383702230555	247.98543790050155	283.60708645189067	265.01166196363675	401.9895587162686	410.63946129157273	341.64399247644207	363.88408859402904	379.54422740593236	399.2665761196114	256.32352459018546	289.19497243060977	288.048408778268	279.7213025745678
40.0	50.0	279.9518031388186	296.2676500111551	340.1085071144791	338.71126565227894	316.21745684572386	306.68669399438033	360.6564203941888	325.2780332299182	270.89474818907945	267.3451932901413	309.8421751323624	288.49146120735315	434.4419622615545	442.73164547519417	368.9285322015023	390.56815958716527	412.4512155666736	432.77987292535755	288.51338631874853	320.4888107574815	318.72350105804696	309.9848008529957
50.0	60.0	295.61232635569013	312.12825079376074	358.7252167303761	356.61482358777283	333.3473514635898	323.40603887040794	382.6020755664263	343.55048035506417	285.70688530653587	281.47538923714717	326.4092436635002	303.83587230574636	456.42625044275644	465.4964451131216	387.26715151974196	409.3959398360351	434.51159045197153	455.4394424299771	310.55239978029124	340.63254424476463	338.6922646521491	329.5365417064135
60.0	80.0	314.52082855452306	331.0636240947465	381.15257460884493	377.80460494769403	353.7784477595594	343.47638919177115	407.40266675576805	365.72952029091556	303.4571580004488	298.51416802594366	345.4861343279146	322.0823221136147	481.8217030288485	491.86687510938395	408.4422108095289	430.71998155284916	460.37300405711596	481.9158815794596	334.4347806937802	364.2412943871968	361.9427297719174	352.64677591613605
80.0	100.0	334.1723237793643	350.38936257900133	404.16505675153826	399.1522120713542	374.70069106674936	364.1495096658061	432.8351673187837	388.78786799691295	321.6920078977934	315.8230805126165	364.49750992271754	340.6004617308277	506.43793859835137	517.5826670366198	428.8827304468934	450.6665362937355	486.2729007618396	508.14592902703055	359.6636110867748	389.14759350888346	386.3504235465953	377.15359759530315
100.0	120.0	348.0769157380667	363.6269828115867	420.2262085181482	413.51921163360186	389.12503354963366	378.5555487664112	450.36387712054614	405.24209720635025	334.3221967267845	327.69900794715267	376.92516053106897	353.1468634330931	521.8510726107236	533.7387781025739	441.5695670929657	462.1018422310672	503.58111472599575	525.2812074414528	378.2789172901051	407.197384037917	403.9365282951243	395.0764677339774
120.0	140.0	357.52131380237876	372.15337831061487	430.8406001008725	422.4585999910345	398.51378689658	388.097416088872	461.7854406247012	416.51646891823106	342.618497590554	335.3164137080588	384.30037003914515	361.0830122881716	530.1470161487754	542.5363079617749	448.2661958655412	467.04575498934224	514.1789780161035	535.3618023324132	391.7368643248477	419.9158620149091	416.222593911442	407.8746412946824
140.0	160.0	363.4042880159077	376.974315093638	437.28536111132087	427.1959674490048	403.94293022729096	393.8098646984287	468.27657878332633	423.78644023793925	347.4613581222472	339.73811606341417	387.6815674229589	365.3851021888327	533.1357356309269	545.8338969167513	450.4887657219922	467.25271225848223	519.6458152913884	540.1121703649239	400.9083014522716	428.2803463072103	424.18928483911407	416.47980961961036
160.0	180.0	367.59701783647466	380.1047850742972	441.7955403614316	430.03927907180855	407.5551270410491	397.7670975499999	472.20098639404614	429.154553192862	350.68004809145134	342.782759061174	389.1783694330319	368.01895291097446	533.8219023439167	546.9167864881124	450.7816842480639	465.71389272948375	522.7207965778189	542.4465411322849	407.59720185796317	434.3649816382257	429.9091440644244	422.8962039336312
180.0	240.0	375.0838010019431	385.6217234115466	449.92349274440016	435.022905915421	413.9494147274871	404.83648063522713	478.7286062541805	438.906098605939	356.33433548188594	348.3243586218743	391.51888249187937	372.58926405325724	534.8442526906169	548.7231160293845	451.1276756351429	462.9261880636194	528.0219289541217	546.4183742129184	419.15500917017397	445.1302294354905	439.9934767412735	434.35002683688435
240.0	300.0	386.2632728827064	394.0991251484315	462.1530448058935	442.8958458116411	423.6967748385975	415.49985478633903	488.7500007518865	453.38594172577064	364.92766979149656	356.77192854540414	395.69076544803363	379.7369026958726	537.7294935133003	552.7282636282322	452.8828689429745	460.7878362082628	536.5517691204034	553.2220442036697	436.0553272806192	461.00902442832285	454.9021760704334	451.2005762006999
300.0	360.0	397.4604851115726	402.9092608908746	474.53470781267526	451.36155482881907	433.73277887652443	426.3263808734276	499.2237007141458	467.7801769576307	373.73407913561226	365.44462798597687	400.76909741452147	387.3247823727858	542.3911557111729	558.4403020060449	456.23700939021205	461.1678492845734	545.9396999606373	561.2109565134633	452.6100215344568	476.68741660353953	469.67225511339893	467.7628360060538
360.0	420.0	409.82985970796614	413.24369887469044	488.4821599121975	461.7591506526085	445.33362359624994	438.57488684778656	511.4967311686131	483.457241226849	383.8478579780442	375.4983955671168	407.87679978298104	396.491660564916	550.3925384654909	567.5611837025303	462.4999168622905	465.3943037297475	557.7637187980714	572.0187532742704	469.9683279465421	493.4542546722033	485.58296392546976	485.2987277905486
420.0	480.0	423.72084813471633	425.37323788378757	504.30485018998417	474.3318106288018	458.8031480981809	452.5501180102585	526.1800355476518	500.7775499171156	395.5763602915794	387.0623194873929	417.29710185047537	407.5006408880469	561.8112259552241	580.0736021298742	471.7180040532806	473.1712600888149	572.3477655321782	585.8840895809204	488.90402846305557	511.9302565480703	503.23177299478476	504.4126422568278
480.0	540.0	436.4075049094669	436.35230223286857	518.6266778386594	485.6539442037194	471.01021476360086	465.23003257504945	539.7252853307696	516.568230606476	406.24782742255604	397.3962161497246	425.8814299865433	417.4680760454798	572.0110171607255	591.0981653333962	479.9583740274566	479.95398443331635	585.5206940120373	598.340711567008	506.68310482240605	529.0480796661589	519.5555325754985	522.1491014824834
540.0	660.0	450.37898540871475	447.8017656615127	534.0446947811406	497.0546632973833	483.88046966404556	478.85627702861876	553.7967222084352	534.2159285792078	417.5768442493746	408.22889000190474	433.99749702798283	427.6476264122035	580.8795864647464	600.7654357482974	486.99346049573353	484.7433247476144	598.5681587470526	610.193519488195	527.4183233200123	548.5379560513167	537.965247967301	542.6621409739482
660.0	780.0	464.39015349591295	458.7694572995276	549.213612037886	507.6485408146414	496.3209047349846	492.24687782540735	567.1415157590989	552.1452948911159	428.5875019080326	418.6670532748427	441.11255021587965	437.2226600265722	588.085033569598	608.6848440482291	492.6186760594899	487.8471248561703	610.5009022178033	620.657847835402	549.1182455994442	568.592653278691	556.7524899147437	564.0709597107714
780.0	900.0	473.8892783537848	465.6183126365696	559.171248581173	513.8936680017723	504.22993662314605	501.00954496272624	575.4396140069045	564.5651589578193	435.6536946901686	425.2275725328474	444.81618230859584	442.9975406452614	591.1246024626637	612.1162688781653	494.84491363906517	488.0616573922559	617.3439152149863	626.2074681098992	565.0148365672106	582.8503547333454	569.9356262502882	579.613282236135
900.0	1020.0	482.3707416149145	471.98117986619934	568.1563793083163	519.8987635379866	511.49444348924317	508.94746006166315	583.0586181238613	575.566745348688	442.11888431153506	431.30063470934067	448.7415128378192	448.47990792898736	595.0429549424197	616.3952502697107	497.9279090423682	489.9070694511559	624.0279220243025	631.97170875195	578.8217255278855	595.3372155932851	581.5119060694177	593.201607441271
1020.0	1140.0	486.0335982433456	473.67282192940985	571.4147175282338	520.7803365592725	513.6891331065721	511.79380342997496	585.2322641917689	580.7224733950466	444.22298631758	432.9108859915962	448.4403919794308	449.5689925090511	593.17608484525	614.468097578788	496.17054840331474	486.70621471971293	624.6683987593883	631.604074118993	587.0856151349052	601.9935240540184	587.4066815406252	600.9255553114339
1140.0	1260.0	486.78119518078563	472.7959921152009	571.4033337959371	518.9802107994425	513.0332088157699	511.7222190876736	583.9484844480318	582.3216945173874	443.8248760834155	432.2553757972554	445.92949677158947	448.2863879941099	588.7442320032135	609.935333811385	492.3348265009246	481.8775996292161	622.0882160448463	628.1728263225826	591.0727180166762	604.623037734898	589.440653539923	604.547040423478
1260.0	1380.0	486.91712197407315	471.6627017565777	570.8440046388879	517.1059545501261	512.0367036777727	511.1767178343618	582.4909753778974	583.0467526770565	443.094005167002	431.2843700915705	443.6456876999121	446.8727243551117	584.9339133564188	606.002305018065	489.05126659439446	477.96494506872597	619.560160421856	625.0139524085653	593.8906272798828	606.2408461941295	590.5794168684755	606.9850179352611
1380.0	1500.0	485.33063738978694	469.0313490607061	568.342392097508	513.67439107833	509.37634645198506	508.9076535896911	579.1846986798246	581.6242804530691	440.9134430905762	428.9244010486051	440.1443992477566	444.0926815418639	579.6192135059839	600.4886017312452	484.5356185045773	472.94241868775237	615.2026082847336	620.1005583545592	594.2892019378726	605.5290637930683	589.5001648531927	607.0015283960197
1500.0	1800.0	478.44776419475716	460.8471128525973	559.3692623864448	503.95535759712004	500.76223711973813	500.8389845230135	569.0263935421485	574.048213980151	433.62528981420326	421.4739616058878	431.06752527650343	435.94808483153776	566.6992399216194	587.0594143118792	473.63675238382183	461.433080849387	603.2373267449127	607.3273096802315	589.246947449555	598.7635904709426	582.3584464351528	601.2753722465158
1800.0	2100.0	466.1999555245508	447.56638744732777	544.1431253763374	488.7268705857661	486.5849904930572	487.1795106077206	552.5170600844992	560.0230099269324	421.5147354655594	409.37575907564906	417.3704270450645	423.0164473105978	547.8909396521752	567.5498212508888	457.8489751730043	445.42922542614076	584.6954862405896	588.0365381179421	577.5874134964196	585.2480001463538	568.6413481260932	588.8184460475483
2100.0	2400.0	451.84924960244723	432.8600418415351	526.7986945162946	472.2413581891504	470.7520487766615	471.64377308979994	534.3513801716725	543.1974387583342	407.9089378451208	395.912335617968	402.93310792034504	408.9007568371318	528.4415223730077	547.3535530854422	441.5564472985482	429.18448379512006	564.8063477990543	567.6629755718653	562.1268077405555	568.442718858527	551.9352998816609	572.6559400399452
2400.0	2700.0	433.7743938352412	414.7685018658608	505.22197385832015	452.1229015303292	451.207537410278	452.328296550489	512.0149791969906	521.7936004193452	391.0713907608422	379.342592911183	385.4395558828834	391.62421506837075	504.96546089302444	522.9693559336387	421.902103437927	409.5663323687935	540.5894750330887	542.968272822537	541.5319410253944	546.6895182829476	530.5097846079302	551.3391865010441
2700.0	3000.0	413.4671979137031	394.75630431295093	481.1990179180257	430.02053199464353	429.54180888454766	430.81518270337403	487.2910716059838	497.6321303504002	372.3572972392687	361.0308758634997	366.3204783965416	372.5793761962004	479.53955774557215	496.5972170623191	400.62190129381105	388.53069919612176	514.0449555888138	516.0355655572091	517.62583487479	521.853605837691	506.1731451122818	526.7572344094775
3000.0	3300.0	396.20641406155306	378.1928219558941	461.0537273100374	411.9785894603373	411.5232414825925	412.77340866810135	466.76080198877673	476.93834510997607	356.73931598959575	345.9235309832756	350.95552868164094	356.93765275257874	459.5936691297482	475.993175974204	383.9784677663018	372.68320787394185	492.4645174491893	494.4256859528402	496.4041292548647	500.2374994996401	485.12962066504554	505.12006936176124
3300.0	3600.0	381.58100397837	364.31699022792344	444.08365972554515	396.9468275752799	396.4071288572856	397.5750798937527	449.6582642365973	459.32872527133554	343.61679318816476	333.22803719097425	338.2465508005469	343.87697868037145	443.1513453613654	458.9870470632611	370.25017622942266	359.59396921634135	474.54870982276543	476.54369643836037	478.1214102289389	481.769484663529	467.2140984663315	486.500687486505
