start[seconds]	end[kBq/cc]	NAC.LModel	NAC.RModel	Striatum.LModel	Striatum.RModel	ACC.LModel	ACC.RModel	mPFC.LModel	mPFC.RModel	MCortex.LModel	MCortex.RModel	oFC.LModel	oFC.RModel	Midbrain.LModel	Midbrain.RModel	VTA.LModel	VTA.RModel	Thal.LModel	Thal.RModel	DMS.RModel	DMS.LModel	VLS.RModel	VLS.LModel	
0.0	10.0	14.522604458238375	11.468743630672753	18.970781926941743	15.228099402615058	2.300122433949926	2.898076418622863	5.410187990784085	6.901264137601436	1.7668671400228355	3.620056045115202	31.422094624376392	15.179613827706198	69.73812375728431	11.182606116780013	8.039761710917462	26.23538312139237	20.352577722693376	30.804190054271615	24.53818622418497	35.013682803421034	38.8164049650967	5.276542636212915
10.0	20.0	146.2531472516101	136.59645995887158	163.09772018797128	157.21246477854572	98.26945870854458	104.74498426608827	136.5034237378638	146.61769065669455	85.31729750462029	106.20458512717357	156.10619766012275	145.24055580123843	261.09348107152897	174.27571047127765	166.19203332285602	178.77980212977482	200.51761947376303	206.95510345925376	171.991839587063	185.01168945476667	186.33925503259127	133.81257455446803
20.0	30.0	211.25097851300544	196.40017425079589	238.2833807589826	232.7452375648421	204.1439726319275	201.38896721382685	240.35658596888567	246.0920511482105	176.6488723970349	184.83509707450088	212.71208276989563	206.9080730772154	351.5751946197394	280.06252724344534	286.47685142283365	256.8929679658717	311.64549789241664	302.0891777615036	246.09863279789994	255.68200099282342	254.62405710534247	234.02391173742865
30.0	40.0	245.95270431622393	228.84840060435621	277.6861776470892	271.80269380710735	244.8171530400054	239.7941338875454	287.50748370312857	292.8366971653198	210.2700092174632	217.580312322145	242.6926213274369	240.2536786261459	400.17776938597467	330.26121544022595	339.99263879084987	295.46181146389637	365.4520856209637	349.0665079083989	284.66299442502634	293.6258189061354	291.61646861488475	279.88957979119886
40.0	50.0	273.68281395849067	255.08845762194792	309.09594113459275	302.6809860587481	275.253495111798	269.4091814918116	322.258621612854	327.9655055946339	236.11855207007315	243.6137666751403	267.7729913649227	266.7835893043913	439.4173390975041	368.0458840611657	378.5500334682853	326.13329328973634	406.74719786338363	386.92296161032317	316.24529841256714	325.2407282810224	322.4977607346687	313.98339022154863
50.0	60.0	292.87675986862774	273.1963096793416	331.2566480958617	324.3343548938927	298.6174303043039	291.83111058900954	347.8129571591194	353.48167481227017	255.94857806462605	262.638724215814	284.4471276275122	284.9189402122898	466.1194285575228	394.7241937764008	405.84707443349794	346.86174632013126	436.26336765609346	413.0454497995962	338.48394593836485	347.0532138607987	343.7456449076347	339.13291929656145
60.0	80.0	313.01915505618	292.4083666831783	354.666909670641	346.918469594246	321.70440470241954	314.4110428702417	373.53823976972456	379.46648319232094	275.42395186626015	281.87239352937536	302.0935949227135	303.76886744293336	493.3643681893466	421.10593052564934	431.561282201244	367.27983129602353	466.2317460160269	439.81983293703644	362.13298156355006	370.52645161647865	366.64293434044765	364.74580978580985
80.0	100.0	332.13197504038595	310.8046164578566	377.2400640437641	368.37553637640997	343.71277558745726	336.1793597258089	397.84493284466845	404.122593234131	293.9706806911762	300.16553998222537	318.6246592168154	321.36628835538676	517.9474858655184	444.99503161975963	453.7468768163541	385.1859884243182	494.26973661190607	464.7536952639257	385.0302739938488	393.3296286058015	388.81537900254506	389.2621203547554
100.0	120.0	345.40654808331425	323.77358441879875	393.25428644005996	383.2977647747779	359.0712160099224	351.6207755748602	414.63902456983436	421.26691041199604	306.84996584545615	312.88953847768806	329.7598489715682	333.28674210989055	533.5357349442224	460.4347391533765	466.9357076040779	396.0631769795635	513.2787026524954	481.39464604031775	401.3348927317645	409.5492676209149	404.51973820091956	406.5261587498513
120.0	140.0	354.1263903317329	332.4726247069883	404.18161058528386	393.17509956700326	369.5956424165778	362.38220705214997	425.8475290246914	432.7662248311996	315.5808581797679	321.40169236923634	336.6348893386325	340.7777038545414	542.262427580304	469.57694592128087	473.5812252859551	401.60627761563467	525.5009309384061	491.7278430430956	412.5082463475489	420.6117142851957	415.1448064767678	418.36930541608325
140.0	160.0	360.3727693756684	338.8660755151982	412.294272291214	400.2575181105003	377.1080863778232	370.2925658158713	433.72989945948274	440.9589683582666	321.75484513887125	327.4641593003825	341.31774514624817	345.8972829277485	547.3942452087072	475.12038540176144	476.45697515793836	404.31660447382063	533.8297994405558	498.5664833660671	420.8658370967379	428.8961221734694	423.061040390822	426.985575355087
160.0	180.0	365.44521526278925	344.1489621752714	419.0710282780765	406.02806605159424	383.28255725086166	376.9121361044533	440.1125395011551	447.64296468096506	326.79590825144396	332.40630517802646	344.9600609698591	349.9026064295552	550.9049854434008	479.0841550493818	477.78792181097447	405.80725660420563	540.4027510582133	503.8272458480591	427.881911781418	435.8512227121387	429.67701743437	434.12994108448606
180.0	240.0	372.01767458486125	351.3210703953642	428.5293546448287	413.60182523804656	391.81762114069613	386.4008544074346	448.5327860490911	456.59192923048585	333.61963323150604	338.9929240003694	348.9988849219748	354.5344471407866	553.0356558954048	482.4833168673404	476.221053777166	405.2059234041428	548.3441778925662	509.59527278444676	437.7610659236035	445.58245634535115	438.8078784025033	444.1141610448787
240.0	300.0	379.8731121464519	360.12103126818977	440.24467769205444	422.66091047429177	402.04803751766116	398.0986457415977	458.41031352494105	467.23125118525064	341.7341816085127	346.8528415621016	353.5432730882732	359.7509235733485	554.2963814587264	485.2906664962289	472.2743543631688	403.11009976003436	557.2542794405407	515.7686887410199	450.086166105676	457.74559138011114	450.17333802843746	456.2634870167563
300.0	360.0	388.215077269391	369.2284645964757	452.2749783465058	432.22347856186633	412.43062177689245	409.8328840911241	468.7170181160272	478.2731546443996	350.02911945189373	354.98473354650434	358.9365315671733	365.70203333660623	557.8264220781201	489.62577092692857	470.9600359581778	403.13413049147476	567.1858993808902	523.2019304838989	462.71993638219703	470.28791473554634	461.9787481439039	468.61154599054316
360.0	420.0	398.34469572903004	379.8944538604614	466.10384697065035	443.7306614364891	424.4631365458537	423.06427756973994	481.0993584195422	491.37601040582	359.7944456657452	364.6609334095371	366.34203036203945	373.6083342585403	565.3077179730114	497.12712828401453	473.7827597849742	406.50738576578834	579.9974366245	533.5807771651924	477.16423336532426	484.7148232383776	475.69925678195415	482.79361630902923
420.0	480.0	409.8852662543431	391.78466588057535	481.360649640442	456.79298930021747	437.9143584442459	437.5678558661852	495.2237764382975	506.19469367522345	370.8036499601968	375.6040856811162	375.2662072746697	383.04818365732126	575.8085717044008	507.21013990206586	479.9526631335056	412.4876842791355	595.1640440368943	546.297804419878	493.02658056646874	500.5826941013239	490.8709793878547	498.5182743897624
480.0	540.0	421.45790548841103	403.63441449609314	496.51452362262967	469.8771201665041	451.36370418086756	451.9834024424334	509.414006645674	521.0387346356696	381.84048350258115	386.57527940530053	384.3642151264177	392.6486949289638	586.9874984105868	517.8349724077101	487.1890527514206	419.2203105512863	610.545038505327	559.3263845550966	508.75953007053823	516.3233623823135	505.9420160380602	514.1848928558641
540.0	660.0	437.8431702389285	420.37659794858246	517.8978615364698	488.3929284826663	470.40796373135197	472.36379019015743	529.5262965524198	542.0516161535063	397.4845337831539	402.1211372482568	397.3329033508187	406.3280656262339	603.2671900033538	533.2437192045471	498.27772037711725	429.33032472753564	632.4198476675405	577.9399627725846	530.9465411449602	538.5098026065986	527.1877745884549	536.329933294518
660.0	780.0	455.3073143564911	438.41343590715655	541.1029032998937	508.18942027338676	491.08286968939797	494.7219861170905	551.0912494683183	564.6501539754693	414.36912004911466	418.82419282750044	410.7686859328413	420.62959026694267	619.5716672252921	548.9908023765986	509.1344995488127	439.23803963147395	655.4734358396481	597.2659173601336	555.0630448540796	562.5386255460012	550.0939184213711	560.4204313418559
780.0	900.0	468.50601504838824	452.24183564205265	559.0292146554268	523.1832562955725	506.9468575926822	512.1474527551252	567.3897529761102	581.8167231899063	427.2491993995079	431.52947449908095	420.61809393623815	431.1842177194457	630.9549961335812	560.151347775742	516.3376716729355	445.9405029721528	672.5341333060547	611.3396553025144	573.7479234285281	581.09928220818	567.7001155187046	578.9916356213288
900.0	1020.0	476.36126610023456	460.85356958332636	570.5048407028787	532.217779181933	517.0431037007813	523.6842280886578	577.2762942841337	592.3766769743582	435.2669110335308	439.31534190174807	425.7370695391109	436.9015456451278	635.5410959336957	565.2854736679535	518.2742800616473	447.96866776591713	682.1084523720941	618.654990766111	585.7933117259946	592.9279148417011	578.7382930973503	590.9347643008897
1020.0	1140.0	481.863928870334	467.05312945694106	578.8703281403824	538.5582584276397	524.2016567883232	532.1263361954198	584.1061015847541	599.7655524483816	440.89555514477024	444.7835003457242	429.14247398086394	440.7099647863192	638.1281777089022	568.2296194490054	518.7930421872455	448.82659391847324	688.4616411354699	623.3533251784396	594.6361513512454	601.6012140500278	586.7790601410262	599.5204041991825
1140.0	1260.0	486.2684981782283	472.04163764424317	585.6392607549013	543.6553271864099	530.0875532070407	539.0788896416809	589.6746058495911	605.7789493097421	445.50528623421116	449.22391982618143	431.7927751852193	443.7337185935501	640.1724987492656	570.6792207694638	519.4769762649854	449.6030877586313	693.5877066922451	627.1027326317682	601.7851234057179	608.5700998961877	593.2078850836904	606.5491339748323
1260.0	1380.0	485.80954247208416	472.32169252510425	586.5870182790588	543.3262990796958	530.734420180196	540.7151916260707	589.3812274414545	605.7721309428854	445.69670348232484	449.19519092055407	430.05873416896935	442.28495532371545	635.5987309029671	567.3250853732227	514.7037989389839	445.6628900917871	691.769693103457	624.5167976763536	602.9502841522592	609.4711692869818	593.7095452439545	607.5747631978082
1380.0	1500.0	483.48662434425125	470.69252900088117	585.0737302557644	540.8661955386775	529.0609806007287	539.8970722866496	586.6756560008732	603.2636014779724	444.00013932607925	447.33243677595675	426.9444835345622	439.3066629188925	629.3294284875975	562.1659532462199	508.6159230890407	440.65249110396167	687.3927710653179	619.8284764261874	601.5800604024238	607.87663081968	591.8423605151727	605.9484334701596
1500.0	1800.0	476.0597562660245	464.3113573114993	577.8677156424766	532.7641840235708	522.2103746578342	534.1180683843917	577.9064338828498	594.6018514758396	437.8342620480152	440.8840545100888	418.9384084577727	431.4043681287164	615.4703406570841	550.4345321879724	496.33348361014436	430.2260745067858	675.4927990864805	608.0946045779658	594.4159932129777	600.3232358694719	584.0433848680499	598.4741567706976
1800.0	2100.0	463.2766789106003	452.6836071671145	564.1111902271591	518.642146308451	509.36607717258187	522.2384633325745	562.5446596891306	579.1556080458564	426.66404202293415	429.4269392571168	406.37469880440955	418.73821018219877	595.2047860629948	532.7649320033602	479.0637764781087	415.48238427494937	656.0126152806541	589.6740382190649	580.5263729204497	585.9967590589215	569.6665501006842	584.1503188883536
2100.0	2400.0	451.91984968520126	442.0022590430297	551.1765333426946	506.017630049776	497.4709534172472	510.7192505528633	548.8336070791539	565.2151115813424	416.494008399759	419.0860621237826	395.8345715471148	407.9887347723076	579.1597013298879	518.5377155523131	465.9718046234393	404.15853275847076	639.325770563008	574.3118572970543	567.3551385623914	572.5409695690693	556.3545854665477	570.7174146322363
2400.0	2700.0	434.69976915454015	425.6076858265332	531.1279808441622	486.8512605036248	479.2498299104167	492.6696593260466	528.093425517384	544.0338559256337	401.0112617194153	403.3666956258585	379.97588903137995	391.84760404642793	554.8923930642469	497.2411924399663	445.93681826010226	386.854285918229	614.3038867315058	551.2948882065479	546.842932695019	551.6509569834498	535.8063523181777	549.9927015063074
2700.0	3000.0	411.06562725267463	402.9405491155063	503.2521458458896	460.4959525178292	453.8962532928733	467.29653597707426	499.5027935746036	514.7806816756594	379.56218063612704	381.6656963764499	358.5080270075839	369.89861921397	522.3170909846125	468.4319982696294	419.0018582452116	363.6621675634185	580.1523162638607	520.0774036127324	518.2818047449945	522.6636523943617	507.40290652654943	521.1072300945549
3000.0	3300.0	394.1844359208811	386.42751697396153	482.6637471993764	441.5686682572747	435.1973562683926	448.183774060852	478.89274756046103	493.56602873251444	363.9181828936058	365.9567027956346	343.8923649534069	354.74315829073345	501.31384662775105	449.3364355066724	402.36654156524423	349.22515334912174	556.2675316085832	498.7821986314718	497.11683386530234	501.3230460597282	486.66613648391893	499.6996867618268
3300.0	3600.0	382.3019310426651	374.65314725485337	467.89294461155595	428.2366832780556	421.91763048869734	434.385500334661	464.44928093488835	478.626140545126	352.8536200257386	354.8592999871402	333.7979170703428	344.2608935028327	487.23113704433456	436.5249021215791	391.5135598046048	339.66948784025817	539.7906854491523	484.2212947271474	481.8807282628541	485.99023814002516	471.8291237385636	484.4187365669886
