start[seconds]	end[kBq/cc]	NAC.LModel	NAC.RModel	Striatum.LModel	Striatum.RModel	ACC.LModel	ACC.RModel	mPFC.LModel	mPFC.RModel	MCortex.LModel	MCortex.RModel	oFC.LModel	oFC.RModel	Midbrain.LModel	Midbrain.RModel	VTA.LModel	VTA.RModel	Thal.LModel	Thal.RModel	DMS.RModel	DMS.LModel	VLS.RModel	VLS.LModel	
0.0	10.0	4.48484182373133	2.906586933324869	18.199244198189902	9.758151610949602	2.896256652769853	1.8326291562490544	5.406275919551382	3.1920894952561505	1.7597420878765153	2.857165432513912	5.259761703512784	2.2000043510675513	29.856542655205246	14.41727853691236	7.229834996693424	7.251890821957233	20.302618559729297	35.39471267612366	2.0352922421753954	30.16476609245849	44.766223793587116	4.935065389104373
10.0	20.0	129.6646247970736	106.03292285213388	162.94927843310074	153.09829778694115	106.8460750884791	92.50445362060046	140.3605973137597	122.90845781246823	85.57458578099981	101.42962092746222	133.16606618951397	108.44793291064956	225.8422976768399	179.9640867487367	163.26061164163247	169.9591294521959	200.64189224924107	208.25475201535212	100.2469657686598	182.0044528254562	193.76512459198648	131.20314572282805
20.0	30.0	236.12275657328024	206.54710373722364	238.51330219670467	235.51613991155682	211.85856558690432	207.31853545610144	254.61148155218424	260.15873857649177	176.99476826089284	189.40052033651764	230.4046710141221	244.5557755499653	340.88684163123634	282.89433003485254	285.5637416627556	299.8670851403756	311.49532309281625	305.772718144841	226.42725058716312	257.341877453451	257.76763504602116	233.78550581689163
30.0	40.0	273.4745995413146	244.0802913414836	278.16648352193835	276.88783768651115	252.70460302956346	249.25485405365376	304.79580364760244	312.96480622879847	210.17877325615245	223.11171419228987	267.4276697689082	284.14076329129335	394.7161890040344	331.4160659267802	340.22982880597675	336.1589919715697	365.1622316460973	352.48308893997716	275.2837150457579	296.33468440282076	294.2243046247444	278.1947780776088
40.0	50.0	298.8261108341888	271.58492889606873	309.6966307502056	308.8208701742293	283.275827441663	279.25113521445775	340.70152470322887	349.38016811989536	236.03736030035978	248.99488805800829	291.7317770410767	305.23926228816765	436.94746944152376	368.6768943504748	379.2031594227017	355.8572967388249	406.37446324269916	390.16656970026764	310.2906980383972	328.45367329101356	324.718406999624	312.1808964495276
50.0	60.0	315.52958020274224	291.48497984514836	331.95479999493506	331.1649442391438	306.2592579187673	302.1438338675726	366.86508824748404	376.3680077990757	255.8765839125776	267.93438881863034	307.29032285654745	318.56385387695553	466.30716643254203	394.90210823283127	407.05699280920606	367.3702306149959	435.83628915039395	416.08341823520715	337.5707764247543	350.62535475412335	345.649331136577	337.36545759576444
60.0	80.0	328.81301914814355	309.54135549811434	355.44691492843236	353.93878633509314	328.62842381887407	323.627265841197	392.1381541821396	400.79227090644383	275.3670384227741	286.1325994346735	319.4492662368885	325.4080046330593	495.32408820476047	420.94563945718465	433.326964026528	374.17098593343553	465.76153733599716	442.55352496028746	364.3202916358097	374.0873899415777	368.3501337342415	362.98103914961104
80.0	100.0	339.11929992726596	325.0273073346005	378.08887105614133	375.0995069016468	349.43340120198013	343.2417597219677	414.9465833253918	421.7458452527094	293.93411279978403	302.8129057373486	328.4465068973964	328.5415796459401	521.3122499833014	444.58468698177495	456.1444518641615	379.43981780250647	493.7768685572211	466.9979165262193	389.6948635983891	396.5517606261	390.360396162034	387.5323655305487
100.0	120.0	345.0015509716656	334.2987069038469	394.14614134288246	389.37374917529564	363.4596541011374	356.2779778102129	429.6360191367579	434.3109463916883	306.8337327624133	313.89455521966323	333.1159878946584	329.2192773377288	537.6709483206741	459.89060757625265	469.88504810407545	382.99971373513216	512.7846142359565	483.1191301129	407.33984589156154	412.2363132041624	405.9486933882258	404.85176604762097
120.0	140.0	347.9910777591415	339.2339457690502	405.10077464110225	398.40552027927123	372.57327310118677	364.76187473484737	438.4160102441874	441.14379163471233	315.58453084805285	320.9140744519803	334.904663249234	328.69744052505365	546.8397293431312	468.9551795249041	477.0441393954698	384.538290713862	525.0160409940167	492.9105953095231	419.47821484347884	422.6630261429378	416.4865237124968	416.77919963916673
140.0	160.0	349.82057021423225	341.7729073538043	413.2268830609875	404.50904645847015	378.7129804192012	370.50423277014	443.7008687983788	444.61950997275244	321.7780648884677	325.6290179476916	335.578462837037	328.0261373240971	551.9974275915308	474.4846855643781	480.3652689511383	385.15784795937134	533.3612806579023	499.2273200701352	428.0782379613471	430.24707650918117	424.3672312363049	425.4801637781932
160.0	180.0	351.86735101704147	343.5581296298277	420.0117694422032	409.2837789168672	383.5867491334614	375.26714921046187	447.51025594594057	446.990454806117	326.8381621059236	329.4565685217437	336.45612160085983	328.45899349353203	555.4302205367836	478.45883134505704	482.1081527957404	386.09533696266544	539.9540612419124	503.9904577017347	435.12615414473026	436.50796867201564	430.95172337585245	432.7113165654437
180.0	240.0	355.54305393172757	345.16135550912986	429.47607441290415	414.9340523085815	389.7916057953522	382.08225646372347	451.0324380499369	448.9618596093857	333.74105966856473	334.5291951606139	337.79824970226053	330.4209725197325	557.2871044049757	481.9573336208983	481.2714198231691	386.42460852935517	548.0153188378837	508.8375900211861	444.94993962783445	444.9432220475274	440.07259577635284	442.9338627139159
240.0	300.0	362.30347167570807	347.84755183826104	441.1893058543883	421.3493777251858	397.1418309940732	391.24392202142707	454.3163696606524	451.84268519068394	341.8812858739219	341.1035458561707	341.16341322502836	335.8228577513399	557.8634663459452	484.9080728442697	478.24547123880905	387.308403815566	557.0369724245604	513.8229032522086	456.5220499182201	455.3965157065646	451.4111224710061	455.350246110947
300.0	360.0	371.8456113803904	353.5950856303799	453.2181794640813	428.73766899725643	405.4639963886976	402.01071902859775	459.2831601716686	458.48470871809633	350.2131732381836	348.92148163562933	347.4505596629451	344.4317787227607	560.58116655069	489.28626220090854	477.681332229288	390.63317843950813	567.0100114092164	520.3238968959671	468.2475393304784	466.6247111026329	463.204414547038	467.924661270464
360.0	420.0	383.8193528377073	362.8259050700305	467.05036000325373	438.53474590940004	416.1141370340929	415.1945818658988	467.4733011386116	469.5880206596821	360.0167603357032	358.8041644242285	356.3263245976373	355.42335370178523	567.5264816048527	496.93786034547765	481.1359132024153	396.87201191796066	579.8502202308365	529.9924799232655	481.88957393900944	480.0906059932567	476.9375238079896	482.3001342634543
420.0	480.0	397.1775302454619	374.5212922673626	482.31773034117	450.28373617089375	428.68786752949995	430.1306187243416	478.33696545763047	483.9804436292185	371.06822453705723	370.1872154050215	366.72896794042435	367.6630224353122	577.609566309515	507.08202400752737	487.8624323745538	405.08321131229	595.0453832051687	542.1631625488747	497.141833269486	495.2940947810047	492.12631840476206	498.1958431441819
480.0	540.0	410.25872895726167	386.8124445779109	497.484817084338	462.34193260905175	441.60976473228453	445.1392261056302	489.93025983851044	499.2447013689048	382.139915958071	381.6489841724606	377.01479378471413	379.5069380452671	588.4824380386269	517.7472950381564	495.5954477168306	413.45145590533485	610.4506843208181	554.7669816035184	512.4105668920546	510.57936480286884	507.207655157867	514.0230304262046
540.0	660.0	428.4866228705024	404.8244365144289	518.8895821192202	479.76141304998885	460.37454330074524	466.4722084067953	507.1819933356698	521.7568374076749	397.86633918751875	397.9052557194916	391.36024340057935	395.89723704017325	604.4946674729447	533.2414954940705	507.32783553362793	425.40092623849836	632.391633479737	572.9378860518416	534.0678882494212	532.3991215999837	528.5027588824805	536.3947485779304
660.0	780.0	447.94959758081075	424.8954072361678	542.1195230912622	498.6249068192655	481.229330513404	490.0191993079805	526.1721083212998	546.908705512523	414.7867106522108	415.4483554496338	406.1733034261911	413.1199427305439	620.4682925540524	549.0463733001721	518.8988396414277	437.1146282920594	655.4565099066541	591.9089557135301	557.5464769515343	556.3087585501012	551.3533170200475	560.7830562764406
780.0	900.0	463.09964993385256	441.0073069208104	560.0635349806273	513.2540005280729	497.82760449508095	508.6147618116235	541.2881835662654	567.053747522267	427.7039772857744	428.9456344576774	417.2964540576705	426.4915515460929	631.5657368102043	560.2643051749028	526.6489722489961	445.46524783662596	672.6061898440329	605.9068702210599	575.5245146796195	575.11135935547	568.9580320075562	579.6318194278839
900.0	1020.0	472.70001115181174	451.981677560502	571.5500736429271	522.3932574049145	509.0026617452806	521.2675543200583	551.1176051207559	580.7256867427799	435.7968014021413	437.4610244485049	423.48957976227604	434.65007022477613	636.0024146410633	565.3697883730295	528.9977118328653	448.7233896821045	682.1708346063031	613.3581010892954	587.0298802010662	587.4510813723367	579.9314762414413	591.8429501974814
1020.0	1140.0	480.0866202135457	460.6598756500934	579.918884909208	529.2858336277285	517.5853163670962	530.8651996356315	559.0676428774769	591.4271355006862	441.4256976534455	443.66658714136815	428.0470917237482	441.0629864843545	638.2763645488707	568.3604917185444	529.7917630205476	450.94760464305756	688.5607822578734	618.4351835902137	595.0841238669511	596.8555253427235	587.8963423604403	600.6575373072985
1140.0	1260.0	486.1165636185445	468.1877663096366	586.6934033027461	535.3469273481734	525.063186053102	538.947818871931	566.7423515167327	600.802604281604	446.0631924052106	448.78498183937097	431.69817892121654	446.2415804383898	640.2436491044698	570.8440409548869	530.6845203361638	452.58580609800396	693.7119825092817	622.7277791593565	601.7784995290946	604.7302482085063	594.3450272486255	607.8847729464143
1260.0	1380.0	486.9222571633503	470.6616066530192	587.6387244722196	536.1758915554994	527.2881184448449	541.5093661727161	569.0823712002181	603.7205533162745	446.30116975599657	449.30694391154947	430.64361393457693	446.43892991725744	635.5728333824176	567.4797954288225	526.037952673888	449.2656460872265	691.9118532391032	620.7785506510896	602.5034366668438	606.5809719181498	594.7633195395538	609.1029120136759
1380.0	1500.0	486.00508724994825	471.18082339704	586.1164305837056	535.1075848469317	527.2760872396524	541.6182620647463	569.7123658677842	604.0907052085083	444.5998161487951	447.9966195397631	428.3280353437714	445.31194982323035	629.1248538740497	562.3530539183525	519.9855692943364	445.0915471693913	687.5456773717478	616.8676151996724	600.5857079390647	605.9926501927141	592.8334749111625	607.6358977561194
1500.0	1800.0	480.4985036089816	468.2440425408037	578.8967631373179	529.9231897355822	523.2395988097485	537.273571211469	568.1848949139851	600.0026328212368	438.47067531159314	442.3540069909494	421.34923124706586	439.78408905070273	615.0143874109449	550.5449543556133	507.634657533505	435.3214793831465	675.6403254063537	606.7119673506182	592.8517341308942	600.2426499812339	584.9940732671878	600.4283434491555
1800.0	2100.0	469.8323112729111	460.6089710180948	565.179390801879	520.328843099154	514.0121765976695	526.9961662659657	564.6078306201478	589.8781730261127	427.2870666001504	431.798923375127	409.9720806330977	429.66257730977054	594.7052264945136	532.9806477847617	490.11734021546994	421.4459224129088	656.2138181690148	590.7594479407562	578.1969514481533	588.3167659130447	570.5593858012486	586.2743819241385
2100.0	2400.0	459.7275177285187	452.51630970841626	552.4233487879491	512.2008650322991	504.87441987326605	516.5534467233175	563.3361164923192	579.3948285658822	417.4384129958719	422.03317295750867	400.10622589291097	420.2718807880209	579.2201324130599	519.2674483694643	476.7422922638942	410.52805626582915	640.0682524633944	577.8825609051028	565.1044650614898	576.804316648344	557.6061353537277	573.3149684006787
2400.0	2700.0	442.70963489550456	437.56837678722036	531.9988580854662	497.0112224389651	488.4826437761043	498.8363659815368	554.4984228481013	560.1231819217921	401.76899635503366	406.3467730578868	384.1225757995111	404.3451605182349	554.5660844907738	497.6379450540256	456.37278414371514	392.9105571344935	614.7063786053799	557.1601482979688	544.2027876297894	557.3007732972345	536.7088123435794	552.3966930497337
2700.0	3000.0	419.23990753198365	416.1206560514296	503.7006276763151	474.2324940337054	464.5141714438963	473.6502084414141	537.5603809606184	532.4534763501673	379.70599618248485	384.62663976976546	362.535014736024	382.5310413573308	520.9111541298869	467.95874457191206	428.95445669555716	369.28900542416784	579.5928748461496	528.1361573856464	514.6169898192363	529.3643632363005	507.46242169592114	522.7656125336669
3000.0	3300.0	403.24031416786534	400.4986555461624	483.7084708231261	458.5969887496917	446.8822682090256	455.2577699742171	528.4788307829255	512.4173890951221	364.61155227388394	369.48264331230195	348.70370354531354	368.18996025133293	501.08148435689475	449.86774599326094	411.8368638893168	355.59486248932876	556.7643339329429	508.9399975115092	494.1078248923917	508.8281313605434	487.538378081807	502.0375392543167
3300.0	3600.0	390.46437669623714	388.5731752649943	468.5493038193343	447.8366994966139	433.9530769328049	441.11229614842955	524.175737678759	497.2883431190345	353.2379721547489	357.9898890003608	337.840669516222	356.454034604714	486.4094130000032	436.4968527224664	400.64522242711126	344.9072696978961	539.7011495290989	496.1290602890779	478.67679223375916	493.8621045626703	472.2292417539532	486.2772144795836
