start[seconds]	end[kBq/cc]	NAC.LModel	NAC.RModel	Striatum.LModel	Striatum.RModel	ACC.LModel	ACC.RModel	mPFC.LModel	mPFC.RModel	MCortex.LModel	MCortex.RModel	oFC.LModel	oFC.RModel	Midbrain.LModel	Midbrain.RModel	VTA.LModel	VTA.RModel	Thal.LModel	Thal.RModel	DMS.RModel	DMS.LModel	VLS.RModel	VLS.LModel	
0.0	10.0	16.982659728920346	0.3598542335384632	31.22853047738475	7.146418531510133	5.979431214077184	1.2106220181112441	62.48692837823802	1.9958199098414493	0.0	0.0	41.047608127140805	0.23966981340391158	115.3825426876973	82.71336008185773	7.052201844134034	4.727694715550539	2.060617207807442	25.738784139760394	129.8187145676166	92.50833226136417	89.77789973573078	65.45098313688024
10.0	20.0	156.78073274181057	122.42372210881487	164.21402145726336	153.60362269939336	138.72490015454616	124.8951050758306	191.28751412126564	145.70964623148924	75.30744552026005	67.67526395402419	162.31108814780492	125.9535616454033	255.99660191067343	241.3528076158869	188.60174844565302	183.79206741101322	167.37898627580824	205.67681509142398	233.31483329426334	209.30727959483812	209.19112952927526	208.23995346999624
20.0	30.0	206.53818435266558	193.90185466460886	212.13948189610613	211.8963088279604	191.81330450685067	180.1172982547853	241.83276869189234	219.46611175267964	151.81227368289544	160.2468415045782	208.0173581163533	199.31595047942278	322.263123459879	307.29521619943415	281.35791630998017	284.2536078712846	268.1012903760632	278.82689606276693	285.67266317317853	261.01603574231376	260.97511206491697	265.2779398769939
30.0	40.0	239.86169009973452	232.37624635893567	245.33752937572328	246.58802058441776	223.48807459237523	212.2231036319334	277.9124326896941	259.4940181245628	184.91712451748393	197.36972935929808	239.28444318159336	239.45276967378564	368.37806250520913	352.9629404566306	329.89298519024624	334.2544823256065	319.10778497378004	324.2045514605899	324.9999425726822	299.0048191802703	298.6058121040399	305.05346267171416
40.0	50.0	267.543724829279	263.22481055405046	272.6065573722659	275.47365250223066	249.91375512574663	239.2014578571463	306.79482337442624	292.41829704485417	211.01322072345673	225.72651271315283	264.54279386912054	270.9709696212814	404.01221784017326	388.9449392860823	369.3019251274215	374.20165664688994	359.81245438356433	361.0237723249652	354.5905764013189	328.65692984887755	327.8655185972295	336.8374698173154
50.0	60.0	286.59583250320105	286.1138481675348	290.98256054387537	295.5422964166053	268.32333985081465	258.63003168747855	325.5330849386571	316.24251497822956	231.1252723389487	247.98901514136037	281.00430043826515	294.2223898990248	426.2272989246618	412.011638326755	396.96878777463735	402.12784437709854	389.4007848460073	386.10520415257014	372.617696366254	347.50931135674995	346.23140756828457	357.47313918223375
60.0	80.0	304.482595600375	306.02936571925665	308.5712006294123	313.173950151832	284.8311152186149	275.7436367022492	343.78413632143736	336.76228114673256	247.8481174425226	266.5580041329706	296.613693203968	313.8182564988848	447.84236892125017	433.76185068648385	420.26696447575705	424.46673839697286	414.31624070391507	408.3756649601044	391.365848506508	366.6814226514864	364.35888057904236	377.2000994371174
80.0	100.0	323.59734291520436	326.1873908154299	327.3277242002228	331.1851354582874	302.1663343601216	293.61325631012613	362.84795846406087	357.66846885336076	264.1212489233392	284.24324897859987	312.89679491110974	332.97165004441376	469.59176400628974	455.7811469304604	442.8284974387923	445.02938822951984	438.3093333709961	430.97915404632266	410.34003788113387	386.65459772551765	382.86815914447584	397.57682837882624
100.0	120.0	336.76932787595894	340.4461561195581	340.0144439902876	343.0289413355605	313.91564212289006	306.1821332596527	375.06122332989895	372.010603368357	275.4689955125329	296.618928207191	323.23272865673374	345.9591247359194	482.3209296109396	469.0685341056879	457.03021502205456	457.03655718773655	454.1411689596941	445.4087504272875	421.49911374931634	399.3374014006151	394.0461422445728	410.4094697763752
120.0	140.0	347.0342810251288	350.51776392988165	350.0183265011578	351.4541288203918	322.6190258784707	315.3303951001312	384.66106292517657	382.04060843743883	282.74364362039955	304.4602424136404	331.175370200086	354.5035037151812	491.98684649077126	478.94040793452956	466.1032293792768	463.558054901222	464.31712934884314	455.63219509318293	430.5500794038802	409.62341690540944	402.7709318803954	420.24991914430217
140.0	160.0	357.75639541941285	360.9162909742926	360.4824910327572	360.35188164565596	331.75618494793525	324.86276842273213	394.75147843879085	392.4884447390848	290.2209677775055	312.40681393106325	339.56910483900486	363.367039476244	502.3558434179866	489.48306561128487	475.7670235371662	470.73186843202456	474.93650596250956	466.47733056975494	440.15951357906613	420.4113519636608	412.0286174050994	430.6434997349458
160.0	180.0	368.219616440484	371.28485928823596	370.634161266942	369.0606913100903	340.70358379469565	334.29756399904005	404.41859775817767	402.84720623640897	297.7927260918088	320.49686304597225	347.6316776398276	372.2375485515099	512.1237288384941	499.52601240032436	485.3182691156272	477.92902764451395	485.54284730211987	477.0407040567557	449.10044634186545	430.6680448153045	420.78795600052075	440.5974419659314
180.0	240.0	381.96881196835534	385.1736761071505	383.5887716380628	379.202140385202	351.93610912407195	346.86479073679476	415.50108325008495	415.95200015990036	307.51482766277746	330.9793184813132	356.63735681556193	383.01788253999064	520.987957611751	509.34120335178324	494.98920205550894	483.08425964691645	497.6042036037374	488.6965285715391	457.4692425937719	442.31058432175325	429.5383038092125	451.5116141124328
240.0	300.0	398.92267783563517	401.20618364860184	399.56988032803804	390.526464196794	365.21230719849126	361.77528269993365	428.76943294496687	430.6718243827787	317.91414137571144	341.93286844992366	367.25523603369805	394.3585741815089	530.5889982406434	519.9754639690686	504.00349609265504	485.6257841751795	509.51081205098916	501.2618252287975	467.3075322173321	456.5156638698665	439.6214412205006	464.14370058317246
300.0	360.0	417.29099483281215	418.6663524816414	417.064524850042	403.72472166849036	379.9344846132732	377.9362527457925	444.10437205813065	447.19242284292875	329.56026223750854	354.26490586036385	379.66666367384795	407.5372231544351	543.8197557535177	533.92920999234	516.2584410635656	492.3476549089327	524.227872242117	516.5924294230309	480.1530484809426	472.9685836508712	452.3121794197664	479.25048696835006
360.0	420.0	434.6978482145113	435.2192611370271	433.6287737358162	416.2599097169177	393.8746481568866	393.2520434220357	458.632135783769	462.8594784604573	340.60844376667984	365.9771548116362	391.4408819432151	420.0762831705016	556.5597407809962	547.3068965454141	528.1295751652319	499.37097847562916	538.3304349970621	531.2099254459057	492.4286311594647	488.5466521065813	464.4201091021873	493.5997448725059
420.0	480.0	455.43040426047895	454.8732741082988	453.6726087465625	432.4586582729871	411.00356763302	411.45122119519255	477.34360108373994	482.1383863236821	354.21173521689514	380.3779070476613	406.88771310859664	436.0489754485262	575.3151775881755	566.3152958622242	545.1721118804614	512.1725995672598	557.1517165940248	550.7254588466814	510.01662998475814	508.6493598908737	481.2968072214135	512.616754871246
480.0	540.0	478.13924918744505	477.03951960764186	475.65019225713985	451.041807245922	430.1452613844668	431.7216474417351	498.2362859297364	504.164552786186	370.1579740157036	397.414090446017	424.25978777170167	454.8340555199325	597.2023225781068	588.4578233665048	566.0189143151899	529.3265899082414	579.8176431043279	573.4424503883959	530.0016976436699	530.9454356506152	500.54468526248	534.1779382580322
540.0	660.0	504.948601532441	503.0555078950776	501.2870410975146	471.7007478951458	452.1717679622945	455.60539208393334	521.5473067028219	529.3419603917329	388.35004951276204	416.8336878238985	443.47311546329036	475.8245963168196	619.9123873198872	611.8100647482867	587.9438352122514	546.088164185072	604.4525962187896	598.1609938191493	550.998620102416	555.792049239776	521.095393208753	557.7876676709759
660.0	780.0	533.6214781847682	530.4940866326025	528.460681590081	492.5826139623789	475.14543624901677	480.96742165210236	545.381788104437	555.3068281400167	406.9238659527427	436.5839047025112	462.9460493168155	496.95090315210507	641.8222408208193	634.5649744385195	608.9428140157316	561.0590713811208	628.639247249471	622.7119449574828	571.5690043581043	581.2431607859677	541.3936897477608	581.5271569703757
780.0	900.0	550.5598928100253	546.3124425566998	543.9010219820213	502.34315983492576	487.511161344906	495.7746933109525	556.841821381147	568.9424280696027	416.48882377924326	446.7205295757609	471.8655202051093	506.9774300895141	648.9605736775717	642.7815300902525	616.1653278018562	563.2880159949444	638.7387532469489	633.1734030389703	578.8972498208681	593.4847046744666	549.2467264687734	592.0260663653029
900.0	1020.0	562.8987872528412	557.1331071958934	555.024249920168	508.43078880894774	495.9735083201502	506.19091192560103	564.5521007776243	577.7860404459979	422.2858456476771	452.7197860496274	477.7042299202441	512.8502553314028	652.9239605239242	647.4484943700974	619.4243293699664	562.7559292580108	644.0094207454094	639.3222893062231	583.4538383535988	601.8675194284693	554.0925047929702	598.7382309418327
1020.0	1140.0	578.5313186891078	571.7458962896958	569.6197438723722	519.009398765854	508.0172790884487	519.8477255343064	576.782881708566	591.1935911649407	431.74044368382994	462.7201737856796	487.6169086076971	523.4832676179557	663.8934448328534	658.8157411985852	629.8161157875326	570.4642646718391	655.996327867435	651.6157835006348	593.7884962856905	614.9626568101119	564.2906012317718	610.7496434161742
1140.0	1260.0	582.5386362050626	575.167905527999	572.4912563688074	518.408699875467	509.5457967293708	523.238382865076	576.3404726462235	592.5380830751391	432.5883752822697	463.5989285211878	486.69757863356625	523.2400560696373	658.9989050962467	654.8304707087937	626.0078773756114	564.3598839463713	653.9199129949233	649.5353916789579	589.8886446155971	614.4299328280188	561.3532552940072	609.0962818973059
1260.0	1380.0	575.1816956638675	566.7034552611008	564.1916273211209	507.0069297007112	500.779959016568	516.0601764953553	564.4283978683096	581.4784551143683	423.9811251292166	454.22137157157863	475.9904744634894	511.63329831678266	640.5688805571377	637.2934136715915	608.3613668509761	545.0867767732395	637.3950332894608	633.7885644225636	574.247914809748	601.836174916039	547.084982057753	595.1097804012503
1380.0	1500.0	571.131748158373	561.6533719203491	559.5111098891135	500.16139422801893	495.60585024861194	511.90257937197805	557.4612774801611	574.7596386802877	418.5960777700658	448.2950339756568	469.7019491069825	504.48421302471115	629.9631323505616	627.0741735870675	597.8267475319893	534.0217183820188	627.2963482732472	624.374903816052	565.3110021894578	594.5361566525683	538.8080043753924	586.888768278806
1500.0	1800.0	561.7353569905058	551.4326728039763	549.2865024344612	487.9004121503138	485.38225725796457	503.0133606208786	544.2652865849559	562.2787355208817	409.1384405182882	438.0676525465299	458.0924620675546	492.1582702320316	611.8157334377441	609.515678382486	580.757085256553	517.2342716758745	610.6034041372434	608.0519292126393	549.4616844387039	580.5114441162268	524.1390846498606	571.9847403100462
1800.0	2100.0	542.9512336574229	531.7771516530049	529.829811913584	467.27229517743484	466.90334803198954	485.6228720308937	521.8204869684371	540.0835347897126	392.5860973693294	420.2021653744728	438.72649265860673	471.2826261385997	583.3274117430269	581.5877970490103	553.6638252538381	491.61449881744454	583.2586846331974	581.2548472919393	524.3884437817863	556.6430387927231	500.6177995494742	547.3288824475038
2100.0	2400.0	514.0287531117331	502.54816557386215	500.62246178528153	438.5951625803291	440.0678753405581	459.3196954976401	490.2117939849744	508.49487886061996	369.2854863519208	395.1910696828259	411.6795487533262	442.43674203513325	544.862759189821	543.7627954894793	517.3762230140189	457.6459460131194	546.2714926201078	544.6275321107516	490.2156650119342	522.9634778591593	468.45309894102525	513.2237161249868
2400.0	2700.0	477.70922965030775	466.0757986843202	464.4982116043846	404.5391042166254	407.3594775122747	426.39617986419887	452.64661224926266	470.0973998114245	341.0250682782196	364.8335186047835	379.77458599258193	407.95228361614176	500.792662415315	500.08510394386195	475.3028636073615	419.1475999752251	502.6690144523863	501.58650960093746	450.9880327008371	482.97480361038527	431.21398751761694	473.13013689804137
2700.0	3000.0	460.29484140850576	448.976796789631	447.7189282354099	390.72297614661005	392.789075879658	410.77356026747606	437.1269571078565	453.32752682868	328.8736171199628	351.82695039266497	366.9542663574303	393.8615165357652	485.62305205626683	484.4706645295963	460.57028746344616	408.0570498363352	486.0768561809949	485.0077916219058	437.0350079298327	466.4466691134111	417.4784894950895	457.3570484835875
3000.0	3300.0	449.3068452543499	438.5734712887487	437.2260013007331	382.59576914561404	383.9225733803047	401.1104307267492	427.74761908536726	443.3792186379258	321.8404626476621	344.37006331520774	359.26463795219	385.76671357631835	476.6836511818273	475.32730817396464	452.2890143547609	401.8719606357671	476.7403596288233	475.38189132375174	428.6617689292165	456.3885657734964	409.30877884074454	447.9709826359034
3300.0	3600.0	427.47246927983514	417.10541004162206	415.72390871863297	363.00659385341737	364.78888840442954	381.55235567121866	405.92565215273794	421.16813270580644	305.66648265618016	327.0534246143334	340.79921697708477	366.08432975753925	451.1916861970263	450.1519738999162	428.2597294329596	379.54068086989884	451.9512888369589	450.70061398208844	405.9027734952458	433.0978142611877	387.78636758821943	424.8153463823099
