start[seconds]	end[kBq/cc]	NAC.LModel	NAC.RModel	Striatum.LModel	Striatum.RModel	ACC.LModel	ACC.RModel	mPFC.LModel	mPFC.RModel	MCortex.LModel	MCortex.RModel	oFC.LModel	oFC.RModel	Midbrain.LModel	Midbrain.RModel	VTA.LModel	VTA.RModel	Thal.LModel	Thal.RModel	DMS.RModel	DMS.LModel	VLS.RModel	VLS.LModel	
0.0	10.0	90.38214741852184	98.07411249366334	97.13783559633549	99.84340968467664	77.71515169857538	81.7705803069231	99.68577887822696	102.55928570656923	89.0681548162701	87.05953432046095	88.82822427800318	42.60809990577851	100.25325872234157	99.52435988773223	109.29182330328118	99.37376323311386	106.69137654044741	103.04042576081653	107.44685243128234	102.84519900295297	108.73971580658119	100.57603094750682
10.0	20.0	159.0730678709865	162.18310786151594	161.6639025932602	178.01565039186679	115.4881829892118	125.195956838523	167.1473167470872	176.9774447851791	139.43029487476036	136.95979485464434	138.3731774089531	128.05163099733502	179.7845107451381	176.21519841611538	185.06586397089058	163.022103801926	188.83072467395007	186.2978209126431	186.37834623766744	169.86121007933167	187.6523493594243	169.27387541102692
20.0	30.0	197.74323853986567	197.97965870785043	198.36260505536208	220.72863278855849	138.67941692152806	151.16927673349045	204.78135533713495	217.95083297298586	169.18455776367904	165.99389065642671	167.8080487852337	164.93680054109436	224.66431747430175	219.53255018512087	226.4354311145746	199.52380104831784	233.15110536800003	232.79192751784694	229.62498558445017	208.5358456724951	231.0939175970426	207.48979592893974
30.0	40.0	227.56065009008339	227.2951169594071	228.89040855626547	254.47928029094527	158.60267661155606	173.12064667332868	235.79828731614208	251.09337946506375	194.39900342747947	190.5353186837338	192.92111296882905	191.80186431228177	259.4330513341096	253.30160814583564	259.9000670683198	230.00436809106512	268.77464700308036	268.67047893397773	264.5531322717549	240.77114690061887	266.6903235706873	238.93051646763314
40.0	50.0	252.5423434769075	251.56890251690496	254.48856890664385	282.8465839866135	175.02632623953855	191.35104267634875	261.7404964962424	279.0893017886113	215.212676824766	210.89011044336084	213.27998919951995	215.22548165340055	288.8771332890602	281.8411380925362	287.2514775134787	255.30755196252326	298.8960942102483	298.9831381351285	293.91299368338366	267.21748619904645	296.4933279662544	265.22952918482764
50.0	60.0	269.3161180631392	267.5070226199647	272.1709393791855	302.3646971846286	185.6139488929313	203.20830269721978	279.1061803819638	297.9857562954941	228.83103186840643	224.23157081662768	226.44850457014087	232.3003808084038	309.391266313273	301.63252435066045	304.81062721399366	272.2163162718211	319.32058822401444	320.0396247744646	313.75927547501595	285.16812562650824	316.6133338969686	282.83874193643516
60.0	80.0	285.9062604198206	283.77192833616476	291.17995783680686	322.51037965106934	196.8165109212829	215.69088536489528	297.3496490509655	317.6937606023011	243.28700976873418	238.38385526278722	240.30241822663035	248.6965695229946	330.586893926259	322.09343191947227	322.0693198677424	290.13230213543784	340.5409913145381	341.5943343193762	334.3061869744513	304.13628059837015	337.7493515512409	301.30482153613855
80.0	100.0	302.5698049158116	300.3348904493057	311.5055145364881	343.46168169615265	208.5508423119426	228.7448641867869	316.4363404729288	338.30762185900807	258.42689689747704	253.23808760252635	254.55088951615	265.4061801759621	352.7416038613548	343.4650522892715	338.9656166814136	308.92375812365475	362.68402020901755	363.94002017319997	355.6318951522412	323.92670337686945	359.86938349354773	320.59876546721057
100.0	120.0	312.5661615729296	310.17578185321304	325.2200329147102	357.0534607326629	215.61737800847405	236.7192160880649	328.6039621831171	351.62792081749706	267.78024288634015	262.4756659735516	262.8974540968413	276.4994794427283	367.46328192574214	357.57032873271277	348.03189895386515	320.87923552157724	377.0262646662315	378.5665545669189	369.24162420289434	336.50518422809927	374.13809960451186	332.8806139510965
120.0	140.0	316.77445650445264	314.31547793990757	333.23180524707624	364.2051290288214	218.8848207265979	240.49612081653513	334.8403750290498	358.61000693728124	272.31647528303864	267.0308095593429	266.42447793765484	282.33937937976054	375.60274378179247	365.27211803172565	350.4754650967415	327.0217370059369	384.5449141729521	386.3535849273834	376.1371160951719	342.95698807596017	381.60261505121076	339.14422757196013
140.0	160.0	318.28675275388264	316.00210390343324	338.67665179827503	368.37091245630035	220.56646580398524	242.4833557071867	338.4638894897635	362.7110993580497	274.8356029630616	269.5990549540611	268.01396911753153	285.42737192415785	380.593032686285	369.93851135293016	350.1809930466601	330.6583146060769	388.9402130733569	390.8803371397546	379.9982014423265	346.7731724885909	386.04466239342526	342.7534833741695
160.0	180.0	319.6527812312618	317.5928537921652	343.87420013800664	372.2682788177157	222.2208022391498	244.4106222771854	341.8952350062392	366.56684501494476	277.26042548731266	272.0698673380982	269.5460616173936	288.174353386488	385.25657494500877	374.30461893946466	349.9044133262746	334.1186909707312	393.0564620513213	395.0835577629898	383.61296636921156	350.3901586862105	390.23490231228965	346.16747102740925
180.0	240.0	317.82910227898583	316.0520570162489	349.01605917049176	374.57623248538744	222.008254078296	244.45223968476046	343.56885875274355	368.81644389036904	277.765186857176	272.76872138205215	268.3656287001408	289.73840031043085	388.9645076437028	377.554774139533	344.40530889481204	335.8781087491331	395.4797826972069	397.7678297553482	385.15938788276713	352.2034456554847	392.7262252247752	347.7534773437238
240.0	300.0	313.6484561774844	312.4313357430542	354.33534411369817	375.65007734143205	220.89484084169428	243.50241740035017	344.09319514063486	369.89527436675866	277.22576528520824	272.52007324933385	265.66659418704194	289.95233481872316	391.81446611560057	379.87642773351445	335.43236997929625	336.6053742313795	396.58296946556277	399.12175062391475	385.152261254715	352.8952750757356	393.99871669581006	348.12374178885983
300.0	360.0	311.04673057727285	310.32777369922076	359.8362201265032	377.57998339084793	220.49140525330589	243.30820803736387	345.4666524961879	371.8133100587539	277.4993980676414	273.009297943595	264.17951099824325	290.76184282314233	395.2996269518524	382.87139185726926	329.3158457228535	338.1313332180992	398.6116690752405	401.3623949477916	386.21870632098427	354.4519250028985	396.17058210702646	349.3826835105605
360.0	420.0	310.11207085643537	309.8893027152098	365.8997824795235	380.6013965197823	221.08204730485897	244.14483012845804	347.97335219436405	374.8318123964417	278.8859011662601	274.5369558937063	264.1462678203972	292.46164678461287	399.6596575338224	386.7822643057312	325.9299337907959	340.76979662848436	401.8119125518522	404.6887988927258	388.5877522249193	357.1888684185431	399.5314015158481	351.8074922027517
420.0	480.0	312.2433492541284	312.48633737319415	374.1349511583346	386.4595267149645	223.58120557412286	247.04715320324877	353.17609294871266	380.6567988365543	282.59222215058696	278.28743427034306	266.69341634778095	296.39062151640525	406.7358667914939	393.3837180424858	326.6669317759892	346.0436810283887	408.0299987081932	410.9816039951267	394.04057411718856	362.7137023632898	405.9064065316569	356.9817828725562
480.0	540.0	316.95745079084867	317.6026115510202	384.26960403279605	394.7566060113315	227.70359272105878	251.70741115538226	360.6704533948834	388.8848518145771	288.2536750404785	283.92401218821936	271.36409028907474	302.30254114074995	416.1811629302689	402.3247142915691	330.70174297476586	353.5482922440095	416.82886134828004	419.8388727805957	402.1123966615242	370.58946228960724	414.8411060931351	364.49074286556447
540.0	660.0	324.8386869961215	325.8598877826666	399.205677702256	407.454394234993	234.12871805847908	258.9527244319966	372.0882747489456	401.4284821978183	296.9210855454002	292.5495339171146	278.6982616462248	311.64278780235384	430.4994131692051	415.910758425056	337.8466951720264	364.9027210566605	430.26021133158196	433.4343818068793	414.5361229845107	382.4953978448201	428.37500598426845	375.95151469536046
660.0	780.0	329.2019069293927	330.411900878838	411.4051802950185	416.5918990987159	238.1147942385826	263.5632683298133	379.9965668304165	410.39133193817503	302.52333849936537	298.26227716710616	282.69719022865894	318.37847623779817	441.4942250879761	426.1790138793957	340.41556287668	372.74551155609527	439.85533849826817	443.3869685335541	423.0380478091107	390.6622798256762	437.95941493132227	383.84107156904116
780.0	900.0	323.09979991286593	324.29449338558436	411.07839947345394	412.8256448824808	234.5686655415098	259.8594838350799	375.948321104371	406.57775099837426	298.463209356244	294.5378317292069	277.37942128452636	315.254114261273	439.0318581324359	423.4140453872805	331.49101889289955	368.76222643767505	435.7532025358651	439.70725785155724	418.25818601204264	386.3712868418582	433.7540836283886	379.6424365493516
900.0	1020.0	316.77370822591195	318.118492983934	408.65601931387266	407.64282076824304	230.79057260240998	255.7902677155538	370.88620021769384	401.4425423430311	293.939311597488	290.258401953428	272.1800213087137	310.8798726063201	434.619019767915	418.8830806817674	323.5379444018543	363.8335409046727	430.20946585065275	434.3583105463447	412.3443300299098	381.12075030052716	428.21509942608617	374.444559105397
1020.0	1140.0	315.31807255418715	316.80431936390903	409.83354531834067	407.1919309353221	230.09166452146295	255.07761420053382	370.32799932201505	400.997812748578	293.2495639030309	289.64669317069365	271.14918815730863	310.27734059702686	434.73625657254274	418.8374181024049	321.77064817021756	363.3320031935069	429.71812432092895	433.95484446126744	411.5708184560513	380.57017801500393	427.75580358388095	373.83756742644664
1140.0	1260.0	315.40715613141003	316.9629535216089	411.82123618268923	408.08577277982357	230.3379823468932	255.38365941290817	371.0444958477923	401.8738045838288	293.6736153006887	290.1045209047385	271.34461717125623	310.85426972387717	436.0836314274233	420.0290981485093	321.8220313889532	364.0637305586641	430.6467208378473	434.9603356895872	412.274848890711	381.3214202900325	428.6960422309424	374.5344641143017
1260.0	1380.0	311.4796851280989	312.97154223031237	409.13456511040954	404.19350403689714	227.64888418235117	252.48157608356885	367.26596281327636	397.9912226775485	290.3872027952687	286.95141881064484	267.85653423072245	307.84416051323086	432.4855874424295	416.4173830397259	317.1428088410819	360.3328680567293	426.48932596848795	430.94734562452527	408.0149627477121	377.3732891445863	424.48911437146967	370.6866314287751
1380.0	1500.0	308.8185679878111	310.3956652712579	407.1839152292186	401.3914429780348	225.94915981898546	250.60244735316425	364.6720832909682	395.23956366985607	288.2607142259409	284.8859608445353	265.7316857682544	305.5389800294353	429.78110187348267	413.7389413536177	314.34479760723497	357.8146717451875	423.51787288814205	427.979744453862	405.0311735028726	374.71329906852344	421.5503824466417	368.0449252690637
1500.0	1800.0	301.8751728568378	303.34116449758824	400.28354825193827	393.4006691510202	220.99893274579867	245.1832827331994	357.1684730618684	387.3147685645744	282.05222577123516	278.84176011144467	259.60507393930317	299.45424675939006	421.7759612310136	405.8890595004996	306.6887027440905	350.41735180746514	415.0287449243463	419.5998969397424	396.6506853269166	366.92329712629913	413.0162432636208	360.4411464026511
1800.0	2100.0	284.35129426967893	285.6570512415754	380.759826495092	372.36985467543417	208.56536418412867	231.47722915824775	337.7101070977779	366.5282421230862	266.2823603710721	263.4169331387312	244.37026099831527	283.352367170115	400.08218414497446	384.801769030028	287.6926616079317	331.2706968525008	392.735359356476	397.36821741625727	374.9216704714989	346.78336818601986	390.69276300261896	340.7492899213651
2100.0	2400.0	268.46369957824743	269.6992705450714	361.12421600719387	352.2622894523981	197.07269761846908	218.75067903375032	319.3368993768603	346.7087610535679	251.6481105493624	249.0001435340586	230.70829143124328	267.9700629021471	378.8592800832976	364.2927445729162	271.3597122322538	313.2327867054292	371.4875698577135	375.9874472747523	354.46424041330494	327.86534949748136	369.5092849037882	322.1874512704162
2400.0	2700.0	253.7286868926904	254.90986797030618	342.0344100080847	333.2089082237361	186.28907275819884	206.79981220088055	302.00546087688224	327.9453522870633	237.91985547500587	235.4352513421274	218.0503854757302	253.40925360674612	358.54044378247255	344.707792222738	256.45002184804434	296.2278306564946	351.3846105285793	355.68639586434216	335.21007066002727	310.0575103867817	349.49821558031755	304.6928757477385
2700.0	3000.0	246.25817502664884	247.47501559128904	330.65311468703834	322.5730561006009	180.69561319262985	200.52483916986554	292.54336720901426	317.52142483921006	230.68753667114365	228.2033899112026	211.8025015898728	245.35731280881066	346.80293060090247	333.49332360702795	249.65378127070747	286.98840017042073	340.2049430379446	344.23463038770336	324.7145088552694	300.4181110934523	338.45428117278993	295.1648378974239
3000.0	3300.0	227.2152309868641	228.12543825914742	307.7247536174241	299.14843651333507	166.89629491527322	185.33172856975438	270.9132533661351	294.35910424773454	213.194851593247	211.05630202454338	194.99746653569335	227.6028121795426	322.2660985707661	309.74021301533406	228.79535517890469	265.67233771297754	315.40358771069265	319.4549928099545	300.6971997495411	278.0313721186986	313.60137000707726	273.3038213492555
3300.0	3600.0	195.27065744746653	195.93481840140183	269.0480045000042	259.50832060441684	144.01326996083426	160.03168134994414	234.53715460606332	255.2417295916091	184.04840202827845	182.43490008735648	167.3249070564702	197.3250341545426	280.59498685683116	269.4463799418825	194.8021921480555	229.90701755971955	273.4591319266692	277.3806424211893	260.1726875939046	240.46996144437728	271.69033354790804	236.53578601308902
