start[seconds]	end[kBq/cc]	NAC.LModel	NAC.RModel	Striatum.LModel	Striatum.RModel	ACC.LModel	ACC.RModel	mPFC.LModel	mPFC.RModel	MCortex.LModel	MCortex.RModel	oFC.LModel	oFC.RModel	Midbrain.LModel	Midbrain.RModel	VTA.LModel	VTA.RModel	Thal.LModel	Thal.RModel	DMS.RModel	DMS.LModel	VLS.RModel	VLS.LModel	
0.0	10.0	85.95000145978887	77.76673697312236	92.33715275894028	71.3255525848459	34.2552464381236	50.300544412200665	96.1766270845823	77.67111766899187	16.05083313454005	96.8425228720178	99.11970337794527	55.16549872463521	88.23371030329561	69.58672210365594	64.10308503874813	69.7185959689543	84.92159089480751	93.0561036952077	81.30090368056406	84.46512998345855	82.30439743248004	100.56334836418134
10.0	20.0	177.92005074170612	171.11272357655278	219.410968368892	212.88032577655773	145.93468821249726	162.97109305269603	220.56227538472496	217.07868902614123	214.67672344834196	188.32597152378165	192.84276178625979	189.6069923624666	267.11662036877175	240.27945239062745	209.44803838009014	216.59813396918653	255.3935062761922	255.37102550425286	211.0972703924918	223.0253562524014	214.31200683307156	238.70197576625026
20.0	30.0	224.7704124553349	217.04540573571708	282.22711039677324	275.77250912971635	186.21063021612727	210.67071704707232	283.325875376899	282.0504790256782	264.463940965924	236.85939008823186	241.09203721417785	246.73054880725255	348.83525073850046	319.4584166988631	274.6668456726497	281.9831085340815	335.15010819084625	332.21956300669177	271.6621527207594	288.3593592967917	275.57330214357034	307.6188626830283
30.0	40.0	261.8845243494432	253.04434384992229	329.4924061934502	319.5173108997971	212.63008106155343	245.59713331515061	331.25829921868086	330.6111373271924	277.6619592477327	276.6462418215321	279.60433102620004	285.8385071440294	405.44099780078955	375.0323416503417	321.0638756973437	327.23085739230265	392.47377937529234	388.5545145062384	317.4969877644402	337.50238756555297	321.5537235205537	359.3023030965323
40.0	50.0	285.50554390169293	276.38146406490654	361.4952106179892	349.86782799464754	230.78841441761793	270.3438871724114	363.7975704461033	365.20405061643675	295.74155151326323	301.81112421674743	302.97140753355006	313.2721390334927	445.11561424696544	416.1924573211337	354.43741719591344	358.7875016820391	433.8441407789437	428.52052469272354	349.2218474687813	371.9564516209738	353.1122827719188	394.56534672990904
50.0	60.0	302.5790652025438	293.02980541406384	383.66516639012855	368.56418076362183	239.97485430685276	286.13413938469114	386.83168888074056	388.70156471446404	302.1848092269012	320.89496239668455	319.7946858794488	329.4145659057128	469.37586075240415	442.8681264346066	375.7180738810562	377.91067691046226	460.94742438132914	455.1562492787163	370.88123190953615	395.46545040811014	374.2750446670887	418.9628072006804
60.0	80.0	322.37835699184535	312.46443645168216	409.69675388907257	389.9974706633886	250.51324896551205	304.6543904305099	414.21755428218705	416.76574491586854	316.111073116442	343.3505813456875	338.6885311856237	347.76728520418186	496.66248428302225	474.430269329141	400.43555151217663	399.3396198030913	492.81440705686913	486.58081935771	396.5452801615344	423.3727169712364	398.9319213468337	447.6992155674882
80.0	100.0	339.54170742357445	329.44440337129424	432.67553532159434	407.7490577164134	258.34221837272116	320.39078346410025	439.06872977696895	442.33691465945526	330.33618104709547	363.68249372188575	354.1279288794404	362.34469869408167	518.4721354562992	502.6938299886513	421.50594866472653	416.14475792519033	520.9909160698292	514.5566759958914	419.5764242875271	448.5207502329301	420.2636650541863	473.2074564131818
100.0	120.0	350.07417328914477	339.9758115383506	446.8891269043421	417.68583511007654	262.1345931672939	329.3878921941542	455.2010559059308	458.77085989029814	339.39472474610795	377.06227834039896	362.753687342328	369.74847572577414	529.2889718428523	519.8965041155847	433.31009243591456	424.1855706842243	537.9537867309416	531.816359551016	434.2145842273246	464.45833519075353	432.92640220983236	489.07980099977624
120.0	140.0	355.4295987951185	345.5241343239055	454.5823327911221	422.3994043291152	263.447620147178	333.62433615379075	464.75482827720685	468.5742501237331	345.1224763436999	384.83048771117626	366.09751096694237	372.4983034826002	532.8033769216003	529.4423132568951	438.67157708251517	426.36525046722494	547.046085350699	541.4585354315324	442.7168137791102	473.6720321249539	439.30806353520256	497.812054389584
140.0	160.0	356.96678530606397	347.3547476434699	457.24173339603834	423.01511221665606	262.63634024946566	334.0803622542182	469.2146743814071	473.05438389603626	346.9076601971663	388.45782861177656	365.7204035886259	371.5752540777449	530.562531504355	532.6210613971259	438.81841220818006	423.9565296330517	549.7539671623673	545.0108085426366	446.40342666801484	477.55150857680474	440.80430546890307	500.99518597899674
160.0	180.0	360.46872669358663	351.04634960284864	461.97510777677525	426.3157380540643	264.20553568975345	336.11342644945074	475.68658374318466	479.23594783582985	351.1578336011354	393.9574328229784	367.8010211379375	373.1056536784249	531.2149195580587	537.303230275896	440.6306249244825	424.01525371536644	554.377165393999	550.6996051584055	452.06506714755034	483.2948260623194	444.35709597078926	506.3421547341765
180.0	240.0	365.0803807743611	356.25491263283465	468.8501418875147	432.9723649276091	268.13040555602345	339.1109380021193	485.6219282943006	489.061912532015	358.8293941547981	401.52615343072176	370.0756716519584	376.8240534362929	532.5588382899922	544.430959008128	442.7402457360015	424.1549294652848	561.3462268237074	559.7571440769945	461.1736343322401	492.1885778769893	449.54390785683484	514.1205389199871
240.0	300.0	367.60623962368277	359.83374312562717	472.87840071433277	438.6411282333178	271.3489872623964	339.56189711726273	493.66474510628933	496.66378358360447	363.2634273406887	407.0098427957582	370.04842859262726	379.192067981218	529.2110615724295	546.6371429725108	439.9032384774179	420.2740756378474	563.7259799805529	565.5862274616321	468.5898009222893	498.4696698158322	451.6860069263077	518.5736258741746
300.0	360.0	370.31825987153303	363.59271635228373	476.5867356189518	445.2243601867635	275.0247495142839	340.40766209681624	500.62469561465406	503.08032910323374	367.0904039421461	411.14143536771024	371.51865801988964	383.14473891069457	528.2379796454686	547.5535028998356	437.3552116042067	418.3911238268816	565.6083651755016	570.8333251675268	475.2130900772564	503.74576360543136	454.1176361867082	522.3399972036021
360.0	420.0	375.9134677757655	370.1365632385596	483.3982572714472	454.83171587791367	280.4667049737919	344.01646093568473	510.06220759859985	511.9923686700106	372.83540899569726	417.09388862393433	376.80952576908595	390.3711284643874	532.5521059545357	551.5075021975634	438.5109169872699	420.86021494546986	571.2405996821689	579.4386956368613	484.22211781406855	511.6567200345565	459.98394198569184	529.2046064709501
420.0	480.0	386.9533489369682	381.94451924226024	496.6921813496116	470.15834755890927	289.45084734108036	352.71177899508825	525.5309539003416	527.0574901278367	383.34017323129876	427.9051680631433	388.2038143524538	403.0729681932397	545.4695866789522	562.768877854006	446.66032277048305	430.3177470713403	584.8400439275961	595.4421043080356	498.9057213988453	525.8414201061819	472.4145644010323	542.9416676314493
480.0	540.0	398.97089926087466	394.70865329095324	511.0627008730079	485.7438077963395	298.2778417862301	362.2560123491783	541.7685476890375	543.0961896734301	393.47130498478816	439.1837097435361	400.60432281114475	416.1575985015536	559.8156663310074	575.5346485526303	456.4589116587831	440.8968270876682	600.1333995067076	612.605420714052	514.1673647580003	540.943958242565	485.99095000476456	557.7506216040094
540.0	660.0	413.7731549696838	410.70702978263597	527.8944995426143	503.4602799989745	307.95150569809425	373.0426453317192	560.8989122873785	562.0331616254149	404.8737985807095	451.8935819265879	415.63127812426194	430.8511845563113	575.2519678474612	589.2488689484535	467.231191954917	452.0042237647613	617.669804758513	632.2353583580505	531.7525749054898	558.3128793229785	501.7626320901709	574.606027112841
660.0	780.0	431.0026748259976	429.52406908854186	546.414604662055	522.4446602814013	318.20541235582533	384.52467581196464	581.77674444386	582.835275500301	416.857666382948	465.2020085392279	432.78118258180706	446.499715355952	591.330937877877	603.3419325958732	478.8944106351767	463.3930497716574	636.9220617236748	653.2442400145626	550.5355907673498	576.9227430941487	519.01068359792	592.637154692179
780.0	900.0	445.7361451762641	445.8012021344614	561.0407603895998	537.0548271780601	326.01678997206886	393.2560311438915	598.0652373482268	599.2413886173483	425.88235128960764	475.0693467557231	446.9586995508202	458.49769177075933	603.2212605461724	613.5374222915601	488.0193597914686	471.69474448121946	652.1566945281756	669.2185815926011	564.8315447334418	591.1068317423756	532.5127154676065	606.3423703898969
900.0	1020.0	451.95934723903315	453.70009875891105	564.4655084795651	540.5583560331515	326.86093014249633	393.8233839321624	602.5395950476114	603.980936475659	426.0072610609237	475.4805393648262	451.8390492862445	460.7938051858775	602.2365088469555	611.6423002043935	487.35717401770404	469.8477197551969	654.6403752865605	671.7746684907542	567.8438685098729	593.5372246537517	535.156344411466	607.8713095149359
1020.0	1140.0	447.932062371883	451.461329694839	554.4162374609074	531.2828934534981	320.0123449492743	384.7240535416655	592.7973835446995	594.4564326991244	416.0225499264441	464.59416467912087	445.995607342295	452.0325261615236	586.2719848995769	594.7098902931906	474.65714355858825	456.2521283278245	641.3803632659311	658.1545615977052	557.3883410490976	581.755169205707	524.8498047585954	594.7523922332664
1140.0	1260.0	443.93603031143135	449.0010339209702	544.0604702274875	521.7262746491589	313.483862465133	375.9022700617978	582.0770833915107	583.9830275553484	406.33898843977516	453.43564419686004	440.3723286648524	443.46767391457837	571.5631769849317	578.0956278724243	462.94363819686595	443.9982107660331	628.2334787232376	644.0282405027048	546.1844236295307	569.3714222311761	514.4998870176775	581.4211496659159
1260.0	1380.0	439.2902793108789	445.69222907535163	532.9891903571988	510.9751852537152	306.1880080318993	366.8217351049203	570.2632278663514	572.5518819039994	395.95814093469056	441.8088025000932	433.8961512323112	434.0383769768102	556.8068650285642	561.7885435234488	451.61762040157276	431.8664004219088	614.8843014879526	629.179920660475	534.0382190230193	556.280512723402	503.55839645135643	567.5674854657697
1380.0	1500.0	433.9158038916026	441.45544417109795	521.0741153337419	499.21446914899286	298.567092952747	357.3681274902161	557.3523167586733	560.0049683822095	385.3507744792189	429.82465194417966	426.5806502141842	423.8416782193171	541.6564906177595	545.2767336436688	440.18957712970837	419.624054432807	600.8339693805376	613.3815883061205	520.9692047670225	542.3581501270676	491.85929598451276	553.0449434595009
1500.0	1800.0	428.24705928632676	437.1642758117141	505.9671601337917	483.5573051546429	288.5745641033981	345.59340542115626	540.3907111622432	543.7367899238843	371.5784784804035	414.3365027257712	417.4648001908939	410.5233049359349	523.2774601683451	525.2718408990247	427.12290555795477	404.89051230252255	583.9418184211434	593.1700032184903	503.87478446076005	524.465512151264	477.0746619193699	534.7065510619783
1800.0	2100.0	423.33440746438123	433.5252263916745	490.41851150298976	467.42296335775416	278.73197336272744	333.76820475594036	522.5973902438192	526.7892227168811	358.6338776390534	399.652398367252	407.7060862635583	396.9151319840446	505.1865490958811	506.1572807817161	415.01932999684755	390.9741499291956	567.462588691656	572.5105416678898	486.2111915758702	506.1863493809771	461.8535167058454	516.2241510832139
2100.0	2400.0	415.8824065334326	426.90518484733155	474.2733129721608	451.4777506869469	269.08269237871605	322.26580929668427	504.82803864455394	509.54467084824734	346.28365820720205	385.8922173849271	395.84559125338643	383.2999307871172	487.5524880124276	488.16160124591653	402.20652988754335	377.2913822365932	550.13419967045	552.8406541793928	469.5457782118228	488.746401779692	446.1479378913163	498.12234861324276
2400.0	2700.0	394.7811856934575	406.61979898783125	442.4810237111905	419.974005028614	249.53570668538433	298.8474020328657	471.1115460805796	476.3740235521568	320.7146969115762	357.6707483874487	370.8161680577859	356.0583513188901	450.8545879238514	453.0784195499846	374.6187893133617	348.30036735941945	514.0841184564762	513.7750239239863	436.66132082461826	454.54967363061246	415.44605483625116	463.2028315965608
2700.0	3000.0	374.763080182336	386.90507595611916	414.26144552383084	393.90016185705264	234.08040086451751	279.87549138281236	441.0228902717861	445.5359784340146	300.4135476124282	334.74370460884603	349.1402461361218	334.07531464932566	422.44967928217295	421.9664658374509	350.5874215965319	326.333551957194	481.3999035714204	480.8899809235541	408.911536652675	425.27772566819016	389.17726975737264	433.23441506923007
3000.0	3300.0	357.7440107210439	369.8151091337956	390.7372514477986	370.0766205018924	219.66477289184317	263.07620897785006	415.26754233093226	420.39319253301267	281.93152163815756	314.3160361840258	329.67108140215674	313.7862632204111	396.7558022704549	398.2135698096494	331.8149565360931	306.42763505174236	455.4604806745313	452.16489352175876	384.2893535588351	400.0157062230964	366.380028935609	407.6018375580082
3300.0	3600.0	346.8693419053613	358.52247481373433	377.2696396148027	357.50099003336584	212.68490683974522	254.77226722066385	400.570049017378	405.2822169516168	273.02698453889013	304.0973491728792	318.71937949725736	303.5134889433899	385.04333531651633	384.8086408518575	321.3414225624287	297.7563941604285	439.87938127583607	437.01335655274835	371.1104995134797	386.4499689616523	354.1761923870401	394.0997189058204
