start[seconds]	end[kBq/cc]	NAC.LModel	NAC.RModel	Striatum.LModel	Striatum.RModel	ACC.LModel	ACC.RModel	mPFC.LModel	mPFC.RModel	MCortex.LModel	MCortex.RModel	oFC.LModel	oFC.RModel	Midbrain.LModel	Midbrain.RModel	VTA.LModel	VTA.RModel	Thal.LModel	Thal.RModel	DMS.RModel	DMS.LModel	VLS.RModel	VLS.LModel	
0.0	10.0	123.45781566060005	29.509907545412666	54.07916813488042	64.03733357475403	59.571089872410425	60.69207225709346	38.936323999819415	64.59486179438409	62.14637708362489	98.6465913289309	122.41771162640099	85.89814252520614	66.22475672603105	78.97924675863979	116.64442471689615	164.33463384386695	165.56766135370637	145.1272759780823	52.64488300477221	55.110636418031085	59.64195767588832	33.78741125291121
10.0	20.0	185.6479192345904	174.03417744868977	209.26448638395814	213.55381120158313	199.99376674278176	197.55397597341891	200.6650858303988	206.441959275944	181.22041808647157	189.70543284426105	213.25291252460428	197.82090184915035	264.8769279617447	277.6679418609826	247.38642749201665	269.2985103289188	275.9962891180191	292.6205581277097	184.61736353962453	200.19563494743022	198.68718462780248	181.67992039293333
20.0	30.0	221.51003571018722	230.42544533892246	268.8069683395855	270.0694432835873	252.0873642912737	246.89077464831095	277.1484128002674	260.0187942862225	219.03187832142396	224.0203142976757	255.31025384191898	238.76235628951758	346.76383007290593	361.45061620843103	296.4218398798539	321.79870729255896	331.4808715478588	353.48513286765	230.98681702497518	253.97019988339906	253.8269034923565	245.80977845714125
30.0	40.0	251.23999915267538	264.1839088998596	306.5926880264131	306.901501524171	286.5957012045302	280.604515747768	318.30198279770804	295.98052331288824	248.05523787188346	252.78997836576343	288.1335811988449	269.5797064730929	394.56360919467033	410.7329277532816	334.2218650340833	364.3390296437318	377.08600487762	399.8098382897285	263.5132692727458	289.8295005718087	289.6938142425536	282.5558653039503
40.0	50.0	270.54920705867096	292.5406916878432	337.8758996325747	336.56125814485546	314.57167044902235	307.8746624071021	352.71616268004857	324.87317758536756	270.89932060848236	273.0234408730119	310.06853453062575	292.53886181503276	433.08462266192487	450.00217083206104	361.1736176177166	390.7778343457993	406.77078529641716	432.52644724680584	290.3509262578029	319.54103053558634	318.9170595666585	313.6917272458805
50.0	60.0	285.8955193638859	310.2002964930817	357.88655455485144	355.69073412214595	332.7602207834985	325.6895717932299	374.5505892226133	343.91215093316026	285.69807779931017	287.3048872537197	325.9141870699235	307.8543794955058	457.38611469257944	475.08383308934606	379.26807657501143	410.1433474282121	429.2509599847141	455.1920615031572	308.21368274634216	339.04620274368773	338.1141797462424	333.69819387043566
60.0	80.0	304.5406267841802	330.351618007701	381.18330315110813	377.59363529497244	353.84376277108254	346.56949631996974	399.17444889881034	366.55373333212145	303.4391105995873	304.51276168819265	344.4882391311682	326.05549541401695	483.86208441049416	502.4079222496263	400.2651814627982	432.32705975733654	456.1657787661928	481.7493062188227	329.7534301089699	362.1980560267123	360.8838316701063	357.12110860910076
80.0	100.0	323.8773323316073	350.9990465978802	405.28812740543066	399.7733467175094	375.44613512347865	368.10702509450385	424.5080924831527	390.2094166906119	321.66423423630636	321.9389806788922	362.876995423978	344.4595811871174	509.8153338558842	529.1327395350833	420.69202974416896	452.83043183574796	483.00270400482736	508.0096403559342	352.70874895834027	386.6077736264032	384.8015234630982	381.8965957890209
100.0	120.0	337.57797435762325	365.2132000078376	422.1708678128411	414.75689839267864	390.369447134837	383.16391742038104	442.0686172662171	407.10879995543075	334.2876471201823	333.802860064563	374.7827967961362	356.8472297278832	526.2388296580204	546.0110510957047	433.5428696730865	464.3169850003608	500.7035415648359	525.1512635781713	369.6851946737343	404.32051870241713	402.04565209441085	399.93340384511407
120.0	140.0	346.84076411134765	374.4705517921359	433.45851062943393	424.19193552530635	400.1296957384516	393.2020616910534	453.6200441840108	418.75461174906553	342.57921796803566	341.3294793941337	381.68199248849004	364.58920823203295	535.37029863351	555.353107781681	440.5553496908281	468.90685357114324	511.2784136898001	535.1812921263147	381.99720828476126	416.8190859119613	414.0976057806253	412.7290814904817
140.0	160.0	352.8096489268621	379.6985260755342	440.2399828471702	429.2045924099891	405.75226821626626	399.2148498886532	460.3036257745202	426.18352053979567	347.42007581892517	345.5760772805216	384.8113005553463	368.6973971708036	538.7500409100018	558.7685348717522	443.18216156211184	468.6716986725194	516.6822114127733	539.8846678543644	390.516280165226	425.0928787326078	421.95508906312136	421.2308957847695
160.0	180.0	357.4612499981341	382.84816293073374	444.73658862180974	432.04607962664284	409.33371764994456	403.2490793567545	464.42426370294146	431.52883949363536	350.6397890192739	348.38281033597036	386.4037378607085	371.18019046845046	539.2809102276865	559.2779873490969	443.8961254609411	466.8185399944163	520.0922148971839	542.2476912752688	397.12930100836996	431.2201934944546	427.70115310546583	427.4652943074125
180.0	240.0	366.07359137106	388.0631610254904	452.50267972993356	436.7666916277314	415.4834507189754	410.2876210231226	471.28933523825646	441.04086366489514	356.29842063744286	353.44348190974165	389.2158498617193	375.515026840547	539.502959993013	559.4740798530397	444.9947153139784	463.62906873040197	526.2783166023626	546.3380972758164	409.148575027839	442.17380964886485	437.94543723626725	438.50128708751555
240.0	300.0	378.8249352104375	396.082502857685	464.19235479020904	444.2485181285556	424.87125175083196	420.8959901202978	481.75007859962574	455.1645773280907	364.8980052430897	361.237856844885	394.07605700420964	382.35680872062846	541.2430705736575	561.2386090606794	447.7125350440283	461.14275891756404	536.094171882408	553.3209680946571	426.80824548554494	458.33056338898626	453.0923731468713	454.75075521428136
300.0	360.0	391.4346278907767	404.46809393631736	476.0722002279147	452.3521076611698	434.5763614161574	431.67627244033696	492.5843739483032	469.2276812194288	373.7101010852328	369.34445554307814	399.79623585583386	389.6934308781148	544.8795537210385	564.9815755875422	451.8313385567257	461.43829191049616	546.6941000250441	561.485334469592	444.10020269724123	474.2683023058358	468.0858282365603	470.756655639572
360.0	420.0	405.21517626630055	414.3340950655448	489.4603125470442	462.3382095335282	445.82433330365564	443.85240658770726	505.1159899785606	484.5476541177131	383.82956895856296	378.91000075242255	407.6280860524576	398.6840007044863	551.7920670744452	572.1390736558815	458.65795124581206	465.94017376222837	559.9678562044425	572.5120597710875	462.23919450052745	491.2905777202905	484.2237364002509	487.7839062797592
420.0	480.0	420.2509450734547	426.17585066410203	504.8937085362498	474.6292717098305	459.0496806531535	457.85671935293703	519.9803055824462	501.60977550312964	395.5620586334233	390.08674060556456	417.6083094099477	409.5487891336175	562.4118923047896	583.1293129924214	468.280284029296	474.1062550448121	575.8541367873347	586.5726123708316	481.72609764083745	509.94900754537156	502.0310037597642	506.46657728332406
480.0	540.0	433.64863705735957	437.0895198565562	519.0796043814904	485.87293353243143	471.1545339167623	470.67801289801844	533.7146798865224	517.2832123544995	406.23567849242556	400.0972828297755	426.42756407661386	419.34567005094596	572.2742007848898	593.3142395273088	476.89301707318447	480.99075127071785	589.6428980777073	599.1189991020119	499.80226502096946	527.1875432784558	518.4469974633014	523.8059542577078
540.0	660.0	448.3692475635536	448.4029437953999	534.3265257285216	497.1923703682831	483.8752421293504	484.45790417808223	548.117737144082	534.776032857432	417.5680980287637	410.4643781013504	434.72291446239956	429.2531296071287	580.7933942866794	602.0965682398255	484.4973572022753	485.55927548086595	602.8588189697339	611.0046434238683	521.1426778989764	546.9013877273161	537.0298394895237	543.6868054574035
660.0	780.0	463.1091416929214	459.1184166957051	549.2515887279809	507.66674103048604	496.09991140694535	497.96678378495784	561.8843503187336	552.4968569869495	428.58348331636057	420.3510401764921	441.9974202431663	438.50277853416384	587.5947178043292	609.102259033906	490.77886356661145	488.29127354962094	614.5844724089949	621.4580266026463	543.8577288241809	567.2875995487203	556.0793159029918	564.2664649183718
780.0	900.0	473.0387069405855	465.74364153254044	559.0306651864556	513.8403684131779	503.8330870183069	506.81106099897426	570.5727569653184	564.7541154363973	435.6537823852234	426.44762253362364	445.7433013806295	443.9883717864972	590.3896440757575	611.9679415446612	493.5428937466047	488.10454022376973	620.8703737211993	626.9483964758618	560.7977333037101	581.8671603657119	569.5149466136323	579.0350454271271
900.0	1020.0	481.8642315489316	471.8638446637044	567.814787002132	519.7427950236563	510.9189105543993	514.787149009402	578.4794242681917	575.5899806948952	442.12273074216785	432.16156157081844	449.7577491922186	449.26338657638246	594.0315918145867	615.7259149938193	496.98367655208483	489.81700120321216	627.2088861898588	632.684271965655	575.637686639413	594.6510646397595	581.328619820778	591.9485817946488
1020.0	1140.0	485.40398122882635	473.54456052428776	571.142483631641	520.7347955254235	513.0904248315093	517.7511287997227	580.9816878404025	580.73599170799	444.22861599475505	433.4728036044532	449.2040960925417	450.10772893711646	592.3567569595268	613.9547196656613	495.5994123681645	486.08933888727523	626.7588689306879	632.1707161621043	584.6645347951215	601.5381238424137	587.388496507385	599.0584733658935
1140.0	1260.0	486.18211800561664	472.4664351743734	571.0128396973473	518.8888870132986	512.3085903391575	517.6500938788787	579.9862365316146	582.2296356133112	443.833472516571	432.5410138941662	446.6461448624389	448.642203778419	587.8133238489279	609.2351817743039	492.06347393599697	480.9569733890641	623.4361518671602	628.650591266753	589.6627791740774	604.4417887793937	589.6372789669402	602.1021857761932
1260.0	1380.0	486.2391005605995	471.2415789135792	570.4291109296578	517.0313582277923	511.2527512959009	517.1114481269481	578.7562702373895	582.9076295034773	443.104414555274	431.3705921414173	444.2616576845535	447.08215029733657	584.023699588913	605.2960685255513	488.9813737047307	476.85609164631194	620.2625513744418	625.4098807023067	593.25893172417	606.2680725027358	590.9324203518175	604.0685110590439
1380.0	1500.0	484.53552339752235	468.53507456605325	567.9176702923224	513.6220714324718	508.5478292391717	514.8308901115463	575.6578346727573	581.4517454692298	440.92534248695335	428.84479971686545	440.65341234299467	444.1752652660574	578.7472763176704	599.8167599602026	484.63584235463856	471.6474788792071	615.2874063930913	620.4164175853595	594.3709228581415	605.7423272094809	589.9911809503595	603.6738459261604
1500.0	1800.0	477.3988501746127	460.26553939780325	558.9603982690081	503.95263263710046	499.890260235083	506.6993947005953	565.8198862003312	573.8455673369937	433.63907396646647	421.1773732013268	431.38704986179897	435.85402353475274	565.9310768706663	586.5193784940191	473.9673590650726	459.8434708085122	602.3518783516704	607.5126761191251	590.3710327851521	599.2400983597221	583.0395120449572	597.3832600292411
1800.0	2100.0	464.91572052601947	446.8736236080653	543.7223931974354	488.7444460652319	485.66301162272885	492.89154298347796	549.6438063116458	559.7777032137201	421.53038508869776	408.8811107632156	417.5541089196354	422.768412745908	547.1678880386705	567.0644453051306	458.3545808905379	443.70865550354165	583.0207616782656	588.1150331239489	579.8964074740887	586.0069178381533	569.5250237697633	584.3704949745373
2100.0	2400.0	450.33146650733795	432.1498662650994	526.4301416398428	472.31255079853014	469.8427680232237	477.20870303311585	531.7188113581223	542.9629907322096	407.9250388746469	395.3212125502231	402.9722679346957	408.5591368123204	527.8395155436064	547.0262903670384	442.1505765509238	427.36636155726245	562.5914291485948	567.6602553672507	565.1801446249352	569.3671343105544	552.9284711868231	567.9052479229185
2400.0	2700.0	432.03838818305184	414.06387495538576	504.91681913798107	452.24779131999924	450.3271961870099	457.70044921498135	509.61971286147514	521.5809660767653	391.0876180590967	378.68414205511056	385.3268793793284	391.2057791350068	504.4994417329225	522.8282699982469	422.5899887127772	407.57851532456044	537.8318386797492	542.8797019340462	545.1015508536881	547.7244995446105	531.5689621407075	546.4266171927777
2700.0	3000.0	411.6156797777465	394.0452400499632	480.9226080443105	430.163096772531	428.68235430480485	435.9457758308795	485.10828698337156	497.4257327949311	372.3736009942094	360.3305280814643	366.1250878592156	372.11528690939554	479.1405883314776	496.5441827728259	401.36795140014556	386.47859832817215	510.9610222163711	515.890654112972	521.553221588505	522.9599045540756	507.270292816824	521.79809982771
3000.0	3300.0	394.47974987877933	377.4518918990291	460.7270872342043	412.06460927217324	410.6620366580109	417.6568472290291	464.6723985639147	476.70266253673475	356.7555205727467	345.2387472961504	350.86011368124446	356.50388440407175	459.09423834618656	475.7759129043541	384.65104560705447	370.92869255519355	489.7221207983227	494.32099802033014	500.4877254993275	501.35911413476026	486.2287245458431	500.25228780520274
3300.0	3600.0	379.94217126267995	363.61512752925586	443.769274610063	397.02628346666177	395.58423109385234	402.27934013559167	447.62379648270036	459.1032180095631	343.6321884953495	332.58586176402844	338.1886060581481	343.47713757217736	442.6567194105837	458.74519463721634	370.84808460751447	358.0174781255472	472.09674615099294	476.4688020385118	482.1369828750802	482.85638847206076	468.274895215101	481.7919188206907
