start[seconds]	end[kBq/cc]	NAC.LModel	NAC.RModel	Striatum.LModel	Striatum.RModel	ACC.LModel	ACC.RModel	mPFC.LModel	mPFC.RModel	MCortex.LModel	MCortex.RModel	oFC.LModel	oFC.RModel	Midbrain.LModel	Midbrain.RModel	VTA.LModel	VTA.RModel	Thal.LModel	Thal.RModel	DMS.RModel	DMS.LModel	VLS.RModel	VLS.LModel	
0.0	10.0	0.12459180893790474	0.9921156918020305	0.005681856384098026	0.01347605329057698	3.644638771498131E-6	0.016588491364189464	0.01291971929730424	0.40787585687955624	1.3145500174735248E-5	9.502205021943031E-6	1.0752111976725087E-5	0.014819484863145618	0.13159931629713253	14.148430297374945	0.013309600083664785	0.13988716087023081	0.18125927558151797	0.034403025227875805	0.021388640825271307	0.09122264246993336	0.002815470393460935	0.012870204085243987
10.0	20.0	56.69935914761311	79.78262103428148	45.25832763006571	47.736934091771445	23.436035601548294	42.92856358607247	49.70126466051788	70.1448364605524	38.67072711998192	33.51623419752339	37.55673703211011	46.496107595731914	68.29956644597935	139.36164080303584	52.84015095954382	62.995615324218335	69.68718697358644	58.79678794547327	49.03811614462697	55.343670818299536	44.67977733882922	49.17547640387288
20.0	30.0	137.11556813922337	155.57929302563994	137.74685782086237	141.0284462549638	97.78630120671733	112.38891509658033	149.6782149815117	158.898468904742	123.48975382347028	123.6971679795597	122.47609916911237	132.27685264811666	189.02434034412175	234.9889628422189	165.25462312308673	165.2590184191668	184.52615348707988	176.78162434107435	137.80389070050163	140.05048895177134	140.4057487342385	147.3283135251993
30.0	40.0	178.0322654080311	195.43825061674158	185.60654833457963	189.00503100011497	133.07907854808516	144.48728384558362	202.32986552946082	204.52082376729808	167.46141496493001	171.09915687781358	167.49625080011532	174.98630694226918	255.37646532079066	285.9129075365675	225.42488638226726	219.2792020970249	247.7241613871612	241.8961279028447	183.11328297286406	183.56682179722165	191.48831467857775	198.71544453330733
40.0	50.0	200.54809321303486	217.70209440131057	211.6788043275617	215.2410576368739	151.97251064243108	162.4778322258508	231.08875513982903	230.14191547486462	191.4626336945227	196.5806493091266	191.4195675759439	198.3919994342184	290.33890370630814	313.9205443517611	256.7584774092783	247.78278491236256	281.427690014364	276.8444029039541	207.96592534013436	207.59116907494845	219.12099886871442	226.80549766124656
50.0	60.0	213.5824916051263	230.17573236343762	226.9198260105883	230.52206859026882	163.37159010330902	173.17222251386244	247.84986099518505	244.95646268721987	205.47526264355477	211.79392073748608	205.43618103971568	211.99403897372318	309.69628968263123	329.0382767044082	273.7454430448877	263.44552471975027	300.36376062965235	296.75493350346443	222.45740958520642	221.68103573439325	235.35586844719273	243.18583221879697
60.0	80.0	226.07203956030625	242.8775231858727	240.70187332840473	244.37051540089152	173.3916293927491	183.5241548750323	262.9860661730873	259.529391387287	217.87396803145157	225.01625808573235	217.59045428332212	224.4117038317864	326.1698072297748	344.6850647566231	287.14546692881	276.8900423576921	317.0528642396542	314.08380380790027	235.78152447036177	235.22583391240946	250.03527467550808	258.00878494189135
80.0	100.0	240.86599534301294	257.81206408204577	256.7968442177965	260.5417577158246	185.2405785413634	196.12912964623104	280.5667805334744	276.742547656141	232.34082516083734	240.18451123534328	231.47434047832334	239.02153176836214	344.52085494015364	362.40504551231203	301.7210823570467	291.9994180359899	335.9361713065199	333.6999644009898	251.4402415127507	251.30867545883402	267.1407234234622	275.25747098595133
100.0	120.0	250.0181842686803	266.27001397621336	267.28566029785	270.9647479739814	193.35510758786162	204.1638721723452	292.044664270648	287.4520331377949	241.83684627877312	250.44992714641114	240.48047502674677	248.23304623980673	355.0960435935703	370.9341853753543	309.5260327960724	300.3046517406793	347.2341040435654	346.04551095226657	261.4642297529251	261.65332482444944	278.5274962429576	286.50071324767663
120.0	140.0	257.04903684322034	273.20848565596503	274.79153441203675	278.4330520713153	198.85734048025114	210.45827105968124	300.23164246726617	295.903823773777	248.4373803854348	257.4334621285905	246.4413655760549	254.894241031909	361.6788241917164	377.68672226994073	313.50661202985754	305.5310489455331	354.80471753443686	354.26933781288625	268.78942440035854	269.65025397191494	286.6953528530173	294.54485284136774
140.0	160.0	262.9530094489827	278.54584840732224	281.4442578503779	285.00105586205126	204.04159950119222	215.88879870611692	307.4892674163477	302.95649909759175	254.37322581863648	263.85612184339817	251.8144957664522	260.6666120527999	367.11101600699	382.214439504743	316.7072643268063	309.6633771999816	361.1518696050978	361.46116117363823	275.1787546778761	276.54178201704076	294.02423866151673	301.66638747336305
160.0	180.0	267.60880643254495	282.8160911578879	286.53490280216045	290.0085723257907	207.91264522137482	220.2665045809734	313.0371180456897	308.64034730774034	258.82939810191743	268.66314619589474	255.67436691675636	265.0526595000735	370.5493866757691	385.3523773997864	318.1116281952879	312.20513580505474	365.57566479284264	366.59419850119025	280.1044329122291	282.0802406714786	299.69248992216285	307.1178603067895
180.0	240.0	272.3546333172404	286.30315182213064	292.04217139651365	295.2741422151156	212.39663100895373	225.2785377920673	319.04159216728294	314.7044711637168	263.56707019318696	274.02246449568383	259.3149933154004	269.4348775124703	371.5014858289425	384.8676906186554	316.0659599520662	312.22741808490537	368.4671031160302	370.97394431085553	285.3231512782576	288.403223202076	306.17830972350373	313.0168947052977
240.0	300.0	276.0144536287936	288.2829046854854	296.2776900032622	299.14229188085426	216.13295953388118	229.92023405906195	323.6023279347397	319.7791572784689	267.03456082082096	278.1375354098648	261.23135096679067	272.4506155189468	368.33901635255506	380.5593953862328	309.4764222279175	308.6728965711561	368.0673562500751	372.45631241916226	289.31137797986014	294.06947004541036	311.58357168881724	317.5204852921135
300.0	360.0	279.1768819411606	290.0697100182806	299.9025073257435	302.45407239996877	219.27462996614224	233.9198123458976	327.52116590694453	324.22608833245965	269.9646921148212	281.61516400253134	262.8134510528001	275.02107909627915	365.8421877621381	377.44423476208374	304.2323135123433	305.84361392720473	367.83459486214787	373.75811267850094	292.73375207554517	298.99588963102025	316.2313442860534	321.3888924964232
360.0	420.0	282.7022135491634	292.49481915958404	303.8423059914427	306.1346004465353	222.58380986452073	238.0609682390191	331.77945604388475	328.9834135810613	273.2246615671345	285.35961282365605	264.9034256701005	278.00727404981507	364.9108518737974	376.2101828463028	301.01524556903405	304.5108740652569	368.73428945465537	375.9143025810098	296.4931524240537	304.0943286161268	321.0900774396896	325.59041130998577
420.0	480.0	287.65187110219125	296.63539694515555	309.2796133851257	311.375981878179	226.90355851039448	243.20311029296377	337.6841025524694	335.29740161505316	277.87335998411106	290.4925477560634	268.5363637889674	282.47380395132774	366.9866021127827	378.23306244270304	300.94328208805666	305.8294414731064	372.23573655968755	380.4479457648881	301.73173986839083	310.5106869550875	327.4156348267153	331.40330327978194
480.0	540.0	294.113964938376	302.5213634862818	316.31613899294604	318.26941164571053	232.35597952365168	249.47361950623048	345.33392478829717	343.2653495635397	284.0084337193199	297.1259577720306	273.77545353148736	288.5003407708364	371.91588694111994	383.23650983298097	303.7515196672125	309.6531455056087	378.2777854080029	387.35981148230087	308.5452501097519	318.37008206757116	335.33093058065754	338.92706451768123
540.0	660.0	301.64793107695124	309.1142133801396	324.6668472599003	326.4056330897579	238.89390133326515	256.93190081891356	354.42855468582803	352.6433473085846	291.26744314664336	305.06957980722876	279.8780860648589	295.529419548049	377.3151674501387	388.1995091883378	306.6547182272334	313.7157370120627	385.0791748210185	395.3578339331269	316.5802371290262	327.760101338425	344.84220812707855	347.8665265769215
660.0	780.0	306.6476116676687	312.88548758229564	330.2844223488541	331.73047380341416	243.51560653011092	262.5233252200925	360.5235328220458	359.2167719475566	296.0060911963369	310.4367463125982	283.324769377744	299.94523000761757	378.49231379805275	388.93193358502674	305.7968381823467	314.2132309393043	387.8720452516278	399.43520206696695	321.9396205712802	334.70575959034835	351.6104120138461	353.8693689856076
780.0	900.0	313.8543950166078	319.46488135300797	338.1115015297744	339.3870659955445	249.60838064555122	269.6143191574181	369.0263371501917	368.143760023899	302.81605902928794	317.80599963331576	289.12778128042	306.6367690605988	384.29864030050106	395.01552619449865	309.6518299884789	318.8472031656819	394.692870313621	407.11052955669123	329.5203150574091	343.5652695851171	360.4590991339623	362.2347924177336
900.0	1020.0	322.40099878716745	327.5755253490378	347.44907625021824	348.6149760490053	256.73545491672604	277.58512492790874	379.20315176260755	378.4949131288088	311.05007129293193	326.63649400850574	296.5382840065281	314.79391820454373	393.0137752761104	403.74342672363036	316.33553270210246	325.9468261430465	404.0983904525629	417.2479150516289	338.56153121673793	353.63505502124247	370.78781260288514	372.2324017095584
1020.0	1140.0	326.9538545664828	331.513570448156	352.51994420700277	353.5417809494382	260.7619962000155	282.18477023238273	384.71788985637903	384.1758967712087	315.46303312630613	331.48531810682357	300.2499634025474	319.04279628884217	396.46859835447157	406.8414347843091	318.51595667012424	328.61840163941514	408.2607623077775	422.08804326055406	343.42884382025255	359.3959540313044	376.6029015600823	377.65434314531024
1140.0	1260.0	323.8715514392173	327.4360136642316	349.43551851675096	350.2321863906218	258.82681939897486	280.3917456470516	381.3371016133344	381.0178244598355	312.5255193667409	328.6967422686664	296.76895277684883	315.7707966012616	389.6707559129464	399.15373903074305	311.902046571178	322.6328937638843	402.25125378463605	416.6873665989819	340.31609675607046	357.0253567902837	373.84831004289083	374.34428478211026
1260.0	1380.0	315.81284521844833	318.4171840020964	340.87777023590206	341.44076583644147	252.81834395803406	274.3183979558805	371.970235120962	372.03142200499127	304.6716491892777	320.70075405604433	288.58220249115533	307.579978715175	376.6849661969925	385.57439203082265	300.27968894508274	311.57274546122096	389.89803961996495	404.6640133518255	331.90300519765447	349.1643581632006	365.2301742274985	365.163967217052
1380.0	1500.0	309.95469189399705	312.04947823246	334.5899416023527	335.01696474770995	248.36205716892118	269.8074146614564	365.0820407093025	365.4298721294583	298.9296560805193	314.79596700822134	282.71690190565175	301.65422895913304	367.91351957577325	376.65997336425477	292.81004987290015	304.2171489559035	381.31843555123066	396.12962637092073	325.748169022843	343.30910781597004	358.8137948904112	358.4141177675728
1500.0	1800.0	294.8873087666595	296.01945435224656	318.52835087781625	318.7283776129225	236.76349174258067	257.55869336029997	347.5431360705635	348.13593715729615	284.39897778211713	299.7733225089877	268.32933394393694	286.71949253453425	347.3880021560577	355.1481129140327	275.6528381631051	286.97789426472656	360.8398260447102	375.5376127474143	310.01357743314685	327.6353044822942	342.1223894600107	341.20478410193545
1800.0	2100.0	269.1924314964352	269.37358648239234	290.90361370683263	290.86567192702455	216.5957626768502	236.10394375615726	317.3670383754274	318.31327698943954	259.53312497073443	273.83145009569427	244.15518132803933	261.39535205585145	314.186050124275	321.02623746771667	248.46906846139282	259.33369300899767	327.1963833900879	341.1937263694802	283.04844211944095	300.18255781733774	313.01923307893213	311.59581649730575
2100.0	2400.0	253.24023498252413	253.51413767773613	273.610807491616	273.5782752359429	203.7242984911065	222.1854685339921	298.4935123428707	299.47244055798757	244.09553470527197	257.5231519088064	229.66604167166517	245.88210496387413	296.0955619940625	302.8880209983842	234.69845785791418	244.54959764820015	308.03919229360093	321.01899380959816	266.23919123972246	282.4460229098511	294.42826748639413	293.0688897646552
2400.0	2700.0	243.9517423333219	244.52269579642032	263.52562178488455	263.56129124390304	196.1073878496907	213.78907568664826	287.5017787485508	288.35089464052294	235.15363838876752	248.00543054544332	221.49918743059374	236.9646569375372	286.52879335826594	293.27819009951094	227.7054064577985	236.79378396899708	297.6103670020906	309.8239760680834	256.45288820901203	271.80651226901983	283.4240687305213	282.2723684540048
2700.0	3000.0	233.72365799684965	234.30049250709374	252.4838644206542	252.52755542526904	187.88352920912044	204.78844308794515	275.45672465116377	276.23165885733914	225.31529937757185	237.6210608736543	212.27553123788113	227.05603241116282	274.6834895557447	281.086854864381	218.30698254476422	227.0068418169461	285.26440344718986	296.9427350696033	245.7074230242245	260.36730284632256	271.52503419423505	270.44522255137906
3000.0	3300.0	218.5053977239913	218.74297617011595	236.11838202885795	236.09243972002355	175.80745432386618	191.71494408499237	257.5990156812	258.3912786942353	210.65484317652604	222.25297643789233	198.24437534825162	212.1877669252418	255.746353839742	261.4576030749309	202.7673542138346	211.21852869988302	265.9767854149311	277.14922717855	229.7468143752907	243.72591679483335	254.091086677606	252.91478540524923
3300.0	3600.0	199.76088683028115	199.64283282916207	215.9197889393361	215.8143521655071	160.89440079268905	175.611781406901	235.55334703350823	236.4142354571949	192.5591375960629	203.26388490181694	180.93891140787878	193.86039001418072	232.5691533058046	237.6358568641864	183.9241828316299	191.95479608915167	242.278402934367	252.755280448058	210.06111164340913	223.2101316927014	232.56088061902398	231.27524299602086
