start[seconds]	end[kBq/cc]	NAC.LModel	NAC.RModel	Striatum.LModel	Striatum.RModel	ACC.LModel	ACC.RModel	mPFC.LModel	mPFC.RModel	MCortex.LModel	MCortex.RModel	oFC.LModel	oFC.RModel	Midbrain.LModel	Midbrain.RModel	VTA.LModel	VTA.RModel	Thal.LModel	Thal.RModel	DMS.RModel	DMS.LModel	VLS.RModel	VLS.LModel	
0.0	10.0	1.4050147467551343E-5	1.15002216456254E-5	1.3176594184069765E-5	1.4543106366600518E-5	1.2899151261282056E-6	1.007366351504623E-5	1.5096706208972737E-5	0.45113142655748667	9.231924422535924E-6	9.10793502405222E-6	9.804847039470324E-6	0.009999438684210873	0.0382136176608207	0.009499799846496206	0.014212951549168091	0.024482962518970208	0.02041576808357568	1.4349687911326265E-5	1.4048269182404247E-5	1.5734702270558345E-5	1.1005947646890447E-5	1.2555929999556107E-5
10.0	20.0	39.41439701711076	36.37689560675965	38.379848495939044	40.092096592865545	15.764592896710887	33.620115783191665	41.996260993850655	72.80338353858906	32.69736114197926	32.69454676957115	33.71228009359085	45.94629184387759	63.35422899645572	69.40370584963034	53.14997024387307	56.641428413913104	60.569464342410775	41.72531824326265	39.5016201507911	41.770477379321704	35.6107633626189	37.33817669115051
20.0	30.0	145.9893373343693	139.66037664900176	144.25810729683087	141.0962943268445	93.80039411905888	111.31051189727728	166.9694225039142	164.85845830893015	123.29612579949041	127.58751821600055	126.72845785062844	134.33847309346476	196.03550541242447	236.6966040519635	166.0593277595507	171.76532982569196	189.3801082999359	180.17945321576144	141.47436749273402	149.52632855223413	135.8505832199674	142.09954234378864
30.0	40.0	198.10923187740912	195.49235263644772	200.46737635140667	194.8862193142339	131.87987872249374	148.2837007806669	230.73220245777458	211.81652419799747	169.40109030171644	176.82141378304783	174.10246840077383	178.64419542957998	265.5320270065408	317.1355395874946	225.94264255164595	228.38604295855885	259.7438416587843	258.1414004887076	194.40112053117264	204.67880809137907	191.37385810111857	200.2795810141771
40.0	50.0	220.72799979296926	223.57783610401736	227.0196798913878	223.47308242726683	152.00431751924305	167.85634348104176	255.79504934814702	237.0678587337694	194.14165542720795	201.85163605178957	197.73855627513498	202.58870321888497	299.1001859631133	344.26101958363137	257.10193377758014	254.38986590910295	294.9440011178378	292.94963884109416	220.72277262299696	230.54440001513382	220.79086031347111	230.87689552421347
50.0	60.0	229.8905417952856	238.78705397518544	240.22937813636761	239.34786860773025	163.96297418745786	179.23001267348772	265.5711110706307	251.02909572684018	208.17347359248603	215.77024907468456	210.54211742407807	216.26742068914248	315.8056368739669	351.807203955476	273.92250676231964	267.29717375086994	312.9324611297771	309.2565014222923	234.49891082542985	242.38537512968367	238.03536362944857	248.4933304049641
60.0	80.0	234.09736093548491	250.1658752006496	249.40292591137043	252.0942800896613	173.90679982277112	188.9963524812115	270.5881715614121	264.03653554035037	219.77476474227626	227.0936948575763	220.3040778874269	228.3266039914423	328.2972910580451	353.00783037069954	287.16470134879313	277.26474592098054	325.88661894805205	319.7654919575017	244.39795474037916	249.2007684309002	253.07133573509452	262.9078121627533
80.0	100.0	240.7063892109071	262.5993080826251	260.1298922542879	266.3481278375827	185.4867368878942	200.384117857485	279.9735522636932	279.3773587452378	233.21410830333173	240.35460063102713	231.8047872348911	242.32250271119497	343.497731111181	360.5101412080506	301.64261310542423	290.16735320977165	340.1158795545561	333.16825574959205	255.71226482054934	257.505153512689	270.0252871570255	278.9266293296001
100.0	120.0	245.05385009741465	270.0474841299946	266.88081260312316	275.0997263413071	193.66932654031578	207.48403990691617	287.4426269101405	288.372059483946	242.10224063136363	249.32040823829666	239.24140879579338	250.84862808675462	352.66549948134457	366.09011435225614	309.3943950636641	297.8566510580285	347.71424071290454	342.7012376392072	262.5635022707991	262.2444623670977	281.55840397359236	289.4267555552635
120.0	140.0	248.01532742055824	274.15152022363185	271.0900602011585	280.4010831495038	198.9236526599135	212.26248655403234	292.7154038453625	295.37994880986867	248.01741691789854	255.33868824109277	244.01633787272348	256.69283039103635	358.13978193810743	368.9560029730829	313.3645190440654	302.3435531350782	351.67823724552534	348.4665480033118	266.75538658476387	265.05198614206256	289.26866957469525	296.04081106699965
140.0	160.0	252.18494853189338	278.25009531071277	275.85011257031	285.291492944449	204.10922844400835	216.5965829533137	299.1211805155671	301.31451859235034	253.61674518974772	261.23915577835953	248.78952229886167	261.7152706562701	363.3796343846306	373.6379099438963	316.5696097473159	306.5594067347575	355.6431585074483	355.02302219925673	271.19919545979167	268.8611827770282	296.3925094101141	302.2488135414436
160.0	180.0	255.534318294203	280.943335355094	279.4885721223914	288.6288622156075	207.90250956399228	219.77786012479072	303.9946413607646	306.10467343062885	257.7737534671097	265.6994098850471	252.25030561133784	265.33640180222346	366.69659100335485	376.3257118020557	317.9857236901157	309.0739891825826	358.0924274841553	359.62673482524855	274.5070739672099	271.9221813487324	301.68668382482514	306.6999959842343
180.0	240.0	259.70069024014776	282.92441122110455	283.7384245064923	291.3362902691105	212.3999823711576	222.92363758789133	309.86955067094743	311.01253193209646	262.2749328902185	270.82634277820927	255.6667129615077	268.3046614068943	367.9383515758716	376.8110372481542	315.9749908170889	309.37905015229853	358.900370323319	364.1717056878178	278.0621222360426	275.84372183152203	307.56633824038386	311.24190697429106
240.0	300.0	263.7838338002594	283.30558704458605	287.5123725803057	292.35814941430885	216.09522835346493	225.28854866855477	314.941688281625	315.26166514979036	265.62619011936107	275.0307972023466	257.74921699573315	269.4498753748125	365.3957924535772	373.8514590515143	309.44726400481926	306.27562684293116	357.36461442706366	366.2024838486556	281.0684905753354	280.2937322681722	311.9447991334325	314.23630827724696
300.0	360.0	268.6101082927902	284.8284503256098	292.02087521432867	294.2920242133813	219.23982457437427	227.9694592379378	320.1824204654955	319.75724253353457	268.6950250628892	278.93060704409623	259.8798747551217	270.62653744707137	363.74536971227286	372.5156259248125	304.25172412429765	304.01511284791854	357.9573422557864	368.6924177921745	284.9924721839772	286.2282311163009	315.7141064585654	317.4922311547972
360.0	420.0	273.8452322864196	287.5698215653187	297.1216510009695	297.57111922540287	222.54756509680124	231.47797145336426	325.7131307183541	324.9326929447911	272.1468917841127	283.1294213991751	262.5341549737187	272.6241032387437	363.5363006933165	372.8207595581904	301.0740817564194	303.1504884642374	360.37138633055224	371.9203375887628	289.7207676060379	292.93811710456487	319.8330531892998	321.63297572724855
420.0	480.0	280.4076247906057	292.32867320476043	303.7481377473058	303.07834762939797	226.8731265934567	236.50547266461768	332.80691668352074	331.8144154571808	276.9976156811403	288.6917257465522	266.6868212244659	276.45620906182427	366.2185131620165	376.09794783191086	301.03306801972496	304.85267303463615	365.5672806784079	377.4096326789472	296.0644551928239	301.12630542842334	325.56669679627646	327.7441015069029
480.0	540.0	288.2281689900051	298.9037067332052	311.8281920345539	310.60957396268674	232.33295918530132	242.9896551022325	341.48957077239675	340.3513419347482	283.3110553272266	295.6866617561907	272.3530755019332	282.1212692982049	371.61099179187363	382.16075377147143	303.86393385350834	308.99899944472736	373.1666249049198	385.0854266901704	303.90067501653175	310.60960890917454	333.00975365896664	335.74545695368636
540.0	660.0	297.1554455798354	306.5038413746348	321.21653856291914	319.88279468690615	238.91415739777443	251.05405234544108	351.43464002566077	350.33308161097995	290.7569837272038	303.9761365576505	278.846373950263	288.9205972416303	377.41342627327367	388.0469542517563	306.7915397446935	313.2964665045609	381.64334516906894	393.86048087038694	313.02436437230074	321.71096736280793	341.9892576492475	345.47950980678974
660.0	780.0	303.7311553575818	311.11421108470677	327.9594976776169	326.6915289744661	243.5472643791315	257.5741199263653	358.50782524469867	357.5601577749204	295.67397218864926	309.7497612697008	282.7327047852425	293.40315696041426	378.9932961307161	389.51111530562304	305.9385713899612	313.9939731411564	386.08901541825816	398.6673565256684	319.5106583131501	330.55046341473263	348.0834358726704	352.3761638230943
780.0	900.0	312.6637050245487	318.4498205338029	337.0627027064075	336.0323146095155	249.6375716161322	265.85970073731664	368.28701033099725	367.221548978127	302.68375046122617	317.56275445644894	289.0146145772796	300.6768217599869	385.2515020569208	396.49741937634826	309.815446855995	318.87818439950996	394.50849188508334	407.1915118561122	328.32762509160017	341.587431421757	356.41838542070957	361.65092848795234
900.0	1020.0	322.25019611301093	327.2788948904083	347.1974697840456	346.7612234031571	256.79434986874816	275.0269592231381	379.1271337824791	378.0661697419185	311.05142965292566	326.64433872523415	296.6717575105797	309.67367630623045	394.1404560349328	405.6863657383489	316.505572989755	326.0863209594861	404.92968344806667	417.75193883002225	338.2068878753201	353.16259213935365	366.4260738848527	372.46733779109064
1020.0	1140.0	327.53781944943387	331.66109756405336	352.75770556786256	352.77949623901594	260.8465880187068	280.5886796651442	385.0611709477651	384.0298057478199	315.5409843710635	331.6578046268731	300.52920150606997	314.80950515464446	397.697749995501	409.1687006457941	318.68977236651756	328.8054398618452	409.6489844532446	422.87082916131084	343.5818007133727	359.9232346086191	371.937790008048	378.46279657079975
1140.0	1260.0	325.1716862221954	327.94753907908535	350.09826526938787	350.316217212202	258.9396389893316	279.600306468801	382.06536833519476	381.0752838151443	312.6674508255218	329.02376227341495	297.1830755817435	312.44689898647766	390.9976291314605	401.7550954349876	312.0783645323358	322.87577751911556	404.0893304946336	417.7420581806641	340.8951374923404	358.42433447596204	368.875280340606	375.5910161864069
1260.0	1380.0	318.2115964391848	319.2299492489043	342.26421995336364	342.43685615824904	252.92552010286167	274.3523443112913	373.4390240648276	372.4536266711843	304.9144146135618	321.2973148563706	289.2688751052316	305.31458376736657	378.2538838384427	388.61503992191774	300.4654941424956	311.9826572400353	392.4795799339946	406.2174440068854	333.1513940820614	351.86760753317	359.94111200706794	366.83273083447506
1380.0	1500.0	313.50511871454273	313.32994590286455	336.84083058068353	337.15307182461413	248.46753744789928	270.83697537940935	367.40628962762526	366.33871164278537	299.3048028843377	315.68206705848206	283.7028390717254	300.6828754726792	369.71706735989403	380.20786323864166	293.0027179182172	304.7794152476092	384.8281556491199	398.2061640224121	327.83389541049667	347.5683273009955	353.35816184204117	360.6257773666667
1500.0	1800.0	299.40322962883926	297.85021881701743	321.47990244130466	322.3098802012762	236.9143646900687	260.0205872863609	350.45173768825873	349.46316757155455	284.8841560078338	300.8892205052638	269.47674041286524	288.0036423824178	349.1184540176309	358.7828773111654	275.6564573141418	287.4712489344256	364.96021405919555	377.87793075737005	312.81804979138536	333.3686100894545	336.5911774492352	344.09341428359204
1800.0	2100.0	274.57029907910567	271.4894873877761	294.43596277382665	296.09639638645064	216.49135154973052	240.16153647214261	320.6571670756255	319.937436258455	259.86412502079094	274.9344057367966	245.3022616538018	265.7970795665224	315.59008284784056	324.47817647776264	248.14876812739237	259.6723904477921	331.83573314033924	343.4776118575089	286.45265385877633	307.37712649090753	307.6332593248833	314.9714183237442
2100.0	2400.0	259.1162283014182	256.01802644957996	277.65671519628023	279.55853350310736	203.82982480203677	227.19711961634582	302.3286361910792	301.6026600811535	244.72813230830297	258.9533598396055	231.11313681780473	252.9708465480668	297.9485283957742	306.6267721481318	234.9046161711308	245.2184956472988	313.0961872802311	323.7539838373812	270.17779625953773	290.51506425858196	289.3361383330306	296.9110107121883
2400.0	2700.0	249.3730578266206	246.74820451370647	267.2576565578034	269.3815764904366	196.24033763750106	218.9336877243705	291.0685175827116	290.28336414544253	235.7486803356424	249.33790102880744	222.80950672924507	245.8318506445005	288.2339638330511	296.60333719799934	227.93160570005523	237.41264106220868	302.0428402303138	312.313252884577	260.0745054901148	279.4565078951469	278.6399426806765	285.8971518931708
2700.0	3000.0	238.95822766270783	236.49692727697743	256.1000295292124	257.937717348038	188.14320032926932	209.7214673998092	278.98132012780036	278.1791183351778	226.03195083748068	239.02014885110907	213.63300859508703	236.96870404864535	276.51999166469665	284.4773922409929	218.7127568719495	227.78590166104445	289.54103005866205	299.4498111125006	249.2195071133585	267.7123469415445	266.9553513220945	273.8846893320725
3000.0	3300.0	223.3960821990654	220.67091180808805	239.40936595362	241.23372407171232	175.91548559006958	196.46008507888715	260.7596286197633	260.0166231448327	211.16557503676404	223.42384334021713	199.37300191491653	222.75958748702737	257.21180176815926	264.4280462486612	202.88921252561653	211.717697055916	269.8363475074355	279.34608826677265	232.93358481293873	250.62557364582915	249.69372729679452	256.08059413805444
3300.0	3600.0	204.43714049328185	201.3852427874634	218.99708904880944	220.95504291019486	160.80916303159475	180.34747158874782	238.41489554366376	237.84424733921702	192.8414474984158	204.19850513191057	181.86970969483863	204.9822663957693	233.62848869558223	240.16955187962108	183.6646081789951	192.11365862355564	245.903778437553	254.58016669011232	213.06331262301185	229.8874416272084	228.3793019190416	234.24241741708357
