start[seconds]	end[kBq/cc]	NAC.LModel	NAC.RModel	Striatum.LModel	Striatum.RModel	ACC.LModel	ACC.RModel	mPFC.LModel	mPFC.RModel	MCortex.LModel	MCortex.RModel	oFC.LModel	oFC.RModel	Midbrain.LModel	Midbrain.RModel	VTA.LModel	VTA.RModel	Thal.LModel	Thal.RModel	DMS.RModel	DMS.LModel	VLS.RModel	VLS.LModel	
0.0	10.0	112.14184566595185	116.34583551092143	108.67889355522695	104.96610362447124	75.46731192544736	70.81190640171346	2.8622014669606726	95.83533299875836	49.79045613683056	95.61134558094851	110.53738495349003	73.88835070780328	125.6638126752498	160.73548045713696	113.6158836325294	182.2424614653196	114.47656050966434	137.4773941047581	0.5156247518392783	25.370573974166412	48.801436292991816	1.9527751776319353
10.0	20.0	288.81725851469196	234.98773504823967	240.07234091180806	236.36862321652112	229.85486756226084	236.90504715793938	167.46983514748752	226.51729734185182	186.29423894876336	238.38872629660193	294.7008423121473	231.43161877725825	357.15148991862003	313.3712909323094	271.41244650909215	362.4948726423697	277.8059710732208	335.83803145315	104.31466075654919	187.8758026797609	197.95219946300003	131.44440939579212
20.0	30.0	315.23717420107556	275.9717534890079	287.55810559007097	283.44686620916696	279.374379605154	293.20272193029837	315.6663180176402	272.02759267705704	231.04286175691672	267.8499714088112	339.6740252790123	273.3543182330285	402.0851587790909	376.81123303421396	319.00469863364316	397.93277637775924	337.6883297098354	395.9167278529093	227.0842660599639	259.7819501942053	253.15847245330235	231.79990625711108
30.0	40.0	323.55110850382346	306.43603001611706	323.8657436499428	319.1628578746269	310.7210024744883	319.30496240999133	362.17146753282645	307.02551219072706	260.3939760000684	283.88765337700806	358.7765786277731	296.109264810762	426.4326047483886	422.6207244527201	351.937124381827	417.18125084047654	381.36203918663733	433.6993180303825	268.7346149407597	299.1744513675475	288.98786209885543	274.1937985891531
40.0	50.0	328.68523091132676	326.21571506613856	350.0482133108249	345.01883266563294	334.09792498536683	338.2834288208232	393.8033098503666	333.07270797349946	283.89624285298004	294.6837111466467	368.253226104706	312.660320668784	448.4191533493844	453.43089909088934	375.74323625772394	425.27667595415085	413.86811445425445	459.2031757905117	300.30210353802676	331.9267266053188	318.87540875949577	308.79444085570236
50.0	60.0	327.60226820768247	337.9316506635458	367.4284629428277	361.98644857213174	347.21107003033643	346.9316607700887	412.7700972310407	350.38546227149953	297.7800888831307	298.8927399463066	367.055058063168	320.2528801589542	459.92089164585735	473.59616217893756	390.18640868120076	425.54858789646687	435.4046655543159	472.62271167828493	322.8960330199729	352.4862671374631	338.09174888358876	333.1798541854706
60.0	80.0	330.086858406337	350.472879329388	387.8086492892645	381.69111982498976	361.7856963945505	356.56306378909363	426.5343012360988	370.95583946158763	313.31067916779955	305.76497180959524	363.8184451568033	329.45192473980444	476.99322479460346	496.36108518838154	407.5869301918517	427.8341549991409	460.63763641571455	487.91198185417863	343.41257300040763	375.1804118472615	360.8419556481113	358.52286800408433
80.0	100.0	336.46633694725284	361.3755168315056	408.0823131003712	401.0375438001635	376.2676845747863	367.1383787905935	439.77609674073267	391.9092528098699	328.39767451878134	314.7679468897634	359.9201621430946	339.8117898355463	496.40968504417816	517.859322205171	425.2635275754333	431.86188481393236	485.9612803311601	503.3795515624159	364.30839891883755	398.3464728669533	384.73382626232217	385.05692422361426
100.0	120.0	342.4723842046672	366.7891846058125	421.5255938009314	413.5373043531058	385.70282756166023	374.7066401219716	448.32324378756937	406.4214849899474	337.83639532642815	321.75634747059604	355.95121888030974	347.20822222429416	509.29196315064195	530.6907962668669	436.49560197379395	434.2467622731574	502.8648925990955	513.347736786794	379.12867714725945	414.26470850080415	401.91303389945296	404.3862114188818
120.0	140.0	346.80571324038175	368.32652843360955	429.7525058052837	420.77794440389266	391.3475802082056	379.6633380399858	453.2238885597365	415.9563434653974	343.09058428208675	326.41264085419965	351.8622607347327	351.8646761755321	516.4046824678388	536.9336362235085	442.51852653122853	434.29276756619305	513.2080926948857	518.788545543413	389.34825454542533	424.65238830635633	413.88192016179386	418.09078261582596
140.0	160.0	349.2913411454327	367.21674133339116	434.08630603212845	424.0717759400902	394.0125680180311	382.29831869123166	455.0253716006229	421.70050534236026	345.1103298259885	328.90551047321037	347.5491677153827	354.07648602178216	518.8526027326149	538.3660966149163	444.3552747290422	432.1429099081482	518.5241872087752	520.6137340119451	395.8798754384154	430.59196231879173	421.6333955665296	427.1579838655474
160.0	180.0	351.84157019717884	365.6940724611709	436.8528119030167	425.7414091116989	395.73565155058293	384.43777558166806	455.5601391290659	425.8231530601246	345.8289642971808	330.9960575245628	344.7475006877659	355.63110619390216	519.7445685299659	538.158799160398	444.63207341141754	430.4290606330285	521.5243382142887	521.5440753891877	400.3587982468535	434.26109013542776	427.2473874446341	433.4714083743701
180.0	240.0	359.48875713431573	365.8619719621623	442.7785814019881	429.3264833087281	400.81888974156374	391.02980840651736	459.68604806451236	434.0535423472499	348.0459484716396	336.6950199763415	346.1378767136168	360.29327256775395	522.4140557718288	539.1158108185174	445.5406884025669	431.1336438014533	526.8501453059877	526.0045799833622	409.40745483542486	440.93354130896984	437.2757606061697	444.12493749944605
240.0	300.0	372.539524475118	370.9063131074668	453.3425641204227	436.28183620380935	410.8124485190711	403.2622281491975	470.252865116762	447.44329970112926	353.71701024082677	346.477495906003	354.45667123012436	368.9557994638125	528.0440248334356	543.5200114302451	448.3947117272639	435.6228739925269	535.5227877080092	535.59366881508	424.8889924413603	452.1512764559602	452.2241551103919	459.77266623028964
300.0	360.0	385.60165593053216	379.84358849568326	465.4322831293414	444.790178042037	422.12799518036144	416.27360735601076	482.993175353614	461.6868541395963	361.59085288502945	356.4728498539179	365.4049883267457	378.2210239113986	534.7884991544175	550.5262149667193	452.6463448620307	441.6831820348817	545.0682496865544	546.7284533218326	441.54218193209573	464.8028530129804	467.1412420209527	475.2259035763612
360.0	420.0	400.1516154975936	392.0497297460595	479.81326850938353	455.70528362344766	435.18331261872316	430.71632799713745	497.6662490796819	477.6699162074489	371.89355905230605	367.88918148513903	378.39032615316887	388.99802714248176	544.6913872878308	561.0463521423551	459.636101184513	450.61644424479687	557.0339972444896	560.441865783156	459.49844691532127	479.7572364899372	483.2688060793405	491.66081565683487
420.0	480.0	415.90378933495685	406.605106331553	496.38488238159266	468.9725538793389	450.0176403066592	446.6912992610746	514.6804761539702	495.4811713014635	384.4283704997963	380.629863152731	392.8222770056462	401.37010799188164	557.6648196670624	574.8004919739254	469.43021883274497	461.85097137294656	571.7349369191409	576.7044798589848	479.2176191764485	497.371943631788	501.1270296993792	509.92035932730147
480.0	540.0	429.2860462782287	419.647956541886	511.44221906664717	480.94306497707254	463.2497277730079	460.82915375792373	530.0615645294941	511.7305895292741	396.04822875522467	391.55389783007735	404.8242139620958	412.1989137971047	568.6881448181917	586.8167838840665	477.98892776099916	470.7934310492554	584.9895158357364	590.8124374540166	497.7150099941277	514.180002774018	517.6339800599075	527.0756592007847
540.0	660.0	444.28200469888435	433.68766004659335	527.8649197153079	493.19351594182524	477.3427364430749	476.27207392244696	546.1354753457247	529.9804928153525	408.7344523727901	403.31200855436845	417.1298621152615	423.4266735344398	578.8929626814785	597.719087689905	485.5205226404137	478.42396494851005	598.1405535667419	604.7236248618402	519.2987892855624	533.7509690474126	536.3558874065875	546.6122837957643
660.0	780.0	460.2129165790467	448.2077309583403	544.4414778582881	504.8925323275623	491.5122555839319	492.28759419369567	562.2075137892737	548.7791490230302	421.68116694393086	415.2988735579588	430.14199424041095	434.5703822867455	587.9476133720761	607.1973781760885	491.8357177298595	485.3083737368881	610.2184318311912	617.998243352192	542.252444870454	554.7572918634139	555.5950285946711	566.5914258205593
780.0	900.0	471.5491063289513	458.46898520247606	555.7805036887233	512.1495240514756	501.05011091733405	503.48714784587384	573.0016595865578	562.0781144826839	430.6899477232586	423.33350424371963	439.16396386016214	441.752633047195	592.5224950894717	611.9791366827318	494.6390323047022	488.57436984296834	617.188999001382	625.9833470130516	559.4839192939133	570.6738639977974	569.2231223919749	580.7675081126988
900.0	1020.0	482.08411929714964	468.2144857726688	566.1203197898553	519.086381606564	509.8675825972581	513.7784844508018	582.9994007652386	573.9705554498696	439.072825249014	430.87449394065305	448.0938201356738	448.59691001561964	597.8661470156754	617.3736297709895	498.1969343676052	492.9399236190365	623.9872683388779	633.9223938815416	574.6717423116601	585.291989816319	581.2175640102926	593.0779894568967
1020.0	1140.0	486.6514190101223	472.28706474752664	570.4192609560452	520.6474729095025	513.1624057163705	518.2406258801312	586.8402634784985	579.8202741901417	442.7315440363681	433.41238899022596	450.9097037354661	450.45510726387187	596.7834315284626	616.2667510170797	496.74731971844017	491.03248691121206	624.7022335840169	634.8929307401831	584.1135524940025	594.1154258959971	587.4575072828064	599.8458414143909
1140.0	1260.0	489.1300986955764	473.9455261741449	571.4443084376634	519.5053445374889	513.7205963686844	520.0156486258569	587.2661998905198	582.1332975341611	443.79624636780136	434.02471836143377	452.25127709347913	450.23693751378306	593.423769209002	612.5488975217113	493.30844815807626	488.14839433810334	622.2111953501369	633.0981280633737	589.26910003419	598.9276005088092	589.8507412983327	602.321928644891
1260.0	1380.0	490.4726477920121	475.0448027900531	571.8129217974683	518.1935509683311	513.7253690968662	520.9346174053861	587.286458506374	583.510439840361	444.4192914062117	433.9697967161341	452.8690419302788	449.58120931858747	590.238268957006	609.2223129784296	490.25827898916685	485.29401752349287	619.7464765997123	631.0827130822122	593.2303534305117	602.7797206447581	591.2859066677076	603.8979021849725
1380.0	1500.0	489.921456745471	474.22248914007383	570.0733988230087	515.2025342925008	511.8702130595863	519.8600210872005	585.1161950001402	582.6337442580588	443.359075058493	432.38799230235713	451.683767952823	447.4103386449952	585.4569372941921	604.1604010447013	485.9339354475631	481.0965005436553	615.4392187349232	627.0579852713151	594.6018110185596	604.138818761764	590.4642411541245	603.1496053346733
1500.0	1800.0	484.467856146867	468.46697690793457	562.1329198715559	506.05016383709835	504.35167664186366	513.3882155881504	576.4653631822654	575.8223927124061	437.59635040747366	425.98820862961895	445.6354247041471	440.04286076813037	573.0985381290644	591.2088798243595	475.1780111731046	470.472967511618	603.4889820984471	615.3326917848574	591.0645267338981	600.5297663352765	583.6792178692001	596.4075008990957
1800.0	2100.0	474.0058602455991	457.8002896808399	547.9882303283586	491.3761601126983	491.4663501622801	501.48507032658637	561.6567722197423	562.6227445887923	427.0893446782568	415.1251401874461	435.2410136470442	428.1012889784701	555.138247444385	572.4221858618968	459.8705262463499	455.60449791572415	585.2465727899076	597.3640207127934	581.1260037945581	590.751157678529	570.3349894708629	582.9551613319319
2100.0	2400.0	460.245409093964	444.3996720213179	531.2117421946036	475.13294120574386	475.98419336890305	486.4480760680344	543.9997948723842	546.2639056936912	414.3561408769288	402.0741527084373	421.9039030522988	414.1380779351654	535.6574081801554	552.1690595162279	443.5000077434309	439.2732373945466	565.2343146205405	577.0950445156749	566.5458403233554	576.557358031054	553.8386120867849	566.0111397883567
2400.0	2700.0	442.63082643402515	427.0311265321571	509.95989031293345	455.1410420454479	456.8410600269728	467.47950195523913	522.0726357303564	525.1460804360793	398.01506716056366	385.834270183704	405.2036579116725	397.0855687852781	512.3022664022262	527.8791607265529	423.9465910419888	419.83155926468834	541.055991092608	552.6250036491097	546.6601702555595	556.5489697757167	532.5365052112147	544.3385520021138
2700.0	3000.0	422.1936902601074	407.2723655987138	485.99638694783516	432.9473081875395	435.06410353382734	445.6276257427816	497.06621354000845	501.0113980885283	379.5050561188062	367.3436251164066	386.0783239518672	377.7990541866405	486.2868889337787	501.22265655979817	402.2214538947208	398.30871843511045	514.118198226959	525.1921220664924	523.0503680777662	532.8992204523352	508.265563077536	519.4252913917496
3000.0	3300.0	405.50599065402935	391.18539173915894	466.0843398778363	415.15455722757844	417.42369601943915	427.7759698876806	476.9305568225307	480.6433218789784	364.1110402593365	352.5792213478041	371.0352389607327	362.50914616577893	466.69746696565034	480.92510168693866	386.0516570096352	382.6630184435977	493.0498486734886	503.98730105478313	502.3722807287014	512.0310309089061	487.2203893086377	498.0873089486087
3300.0	3600.0	390.12950449298273	376.54840743872313	448.8065221678876	399.7419472050215	401.67198186750153	411.5763039925086	458.9011966243523	462.6957166641146	350.6549395296646	339.194189693054	356.88125683864155	348.7741409963847	449.2350091073807	463.1478949063786	371.6986426775	368.2703614465086	474.6450073081506	484.9896781137054	483.71538194945975	493.706800113595	469.23905654419667	479.3849693451565
