start[seconds]	end[kBq/cc]	NAC.LModel	NAC.RModel	Striatum.LModel	Striatum.RModel	ACC.LModel	ACC.RModel	mPFC.LModel	mPFC.RModel	MCortex.LModel	MCortex.RModel	oFC.LModel	oFC.RModel	Midbrain.LModel	Midbrain.RModel	VTA.LModel	VTA.RModel	Thal.LModel	Thal.RModel	DMS.RModel	DMS.LModel	VLS.RModel	VLS.LModel	
0.0	10.0	2.421130545821762	0.14256883401499212	0.27103416243586254	0.8706946526333796	1.817593670420189E-4	0.1520342576530411	0.0	0.01954359379360595	0.019477328474553496	0.2190176915275797	0.09874511439823301	0.5099757153049508	0.011471915229858682	5.420933275637559	0.015213732095766104	0.08258539095139814	0.9378956127380947	1.5802618501051002	0.5961071081908688	0.7564302945947607	8.905225689863109	0.0
10.0	20.0	96.29985197824318	61.416194497819866	66.13500171546046	81.0069852672557	39.131771938473435	59.65519033459225	44.00171181625919	56.41478961557959	48.619406408814086	64.10801202495696	57.65457760023948	75.88894838266668	58.672101191159086	133.8103469749648	54.33292129173021	67.15192290139537	91.76507868924968	101.34361856637477	78.54978840044555	79.83678690826935	108.43908295066787	38.652147682334935
20.0	30.0	152.6752341322219	144.71155473320138	151.54793682461334	163.31884635095528	117.0477281951516	137.14783683234973	157.45230520865346	168.08762616335972	129.8152181740432	149.49154429353962	139.67337021053353	165.26919782705397	188.02091724248206	227.21932704092055	161.6923552250823	188.61922474507085	194.52330824584084	199.3311723194427	168.99918386785856	159.9636911025332	161.72188811782414	139.16821477249113
30.0	40.0	183.47549410499698	181.5686803633751	188.38014484524302	201.16506797051727	148.58277437416407	170.9407807442929	213.25731204311379	217.98944071037246	162.92785455605227	186.09176118600902	175.79725837277658	205.02293318533253	247.43702787919807	274.75191526416336	207.8153547059492	242.858738596129	242.14644431081035	245.88609348592036	209.82276625266707	196.7071576352788	192.68151859289088	184.9483102507679
40.0	50.0	208.85194026578742	207.67079387969056	215.89432603590197	230.11006521873182	170.23059954752964	195.45003925388846	247.4530103979797	251.2243659389525	187.04754800745184	213.18280098005505	201.5136069121627	234.36282922833695	284.6058742079445	311.4215372897739	237.6752096496868	276.95930482865583	277.04681246342824	280.8611242306336	240.1638554033188	224.94159776751758	219.30264172258424	213.97432976311973
50.0	60.0	232.5432364653758	232.4600804917917	242.07739585622284	257.5179279787721	191.11489172189948	218.866671082663	279.0564124618214	282.34143057353964	210.29810552952614	238.94743887132122	226.08851114885965	262.1532627104804	318.61985391554333	345.19104194773035	265.3089212028087	308.0593497061763	309.801633896296	313.6052279771637	268.95128606875835	251.69105395310493	244.0149646656472	241.2290196633272
60.0	80.0	255.92601518744183	259.292328637636	270.62007074064803	286.66392163095367	214.54860932403923	244.16806657187402	316.603685148052	317.66368215325747	236.34564726522814	267.01219981815	253.14624318624016	291.8603280810259	356.697814605294	378.06477539524775	295.39208695536416	341.06013404899096	344.7678699194201	347.9005860064029	299.94074449317515	280.0576907612902	268.594674946758	273.3968484045721
80.0	100.0	273.024261920512	278.5683821724667	291.92328946402114	308.3894499899796	231.49887441760796	262.59690470470264	344.57401748977753	343.6365814425425	255.94641001608323	287.7340129397767	273.25729154486265	313.34334468271874	382.57809221538946	399.455079902794	314.8383962535678	360.9395407226252	370.1285559793236	372.61488598275326	322.8832359288863	301.16670303232416	287.7629761731175	297.3527195680257
100.0	120.0	287.6447464019028	292.77038475571084	308.2000494073292	325.4940506131018	243.5549661885378	276.54227343261067	363.182361750825	361.62362216089065	270.68639453477533	303.37836246686845	288.4041654986015	329.4863732526461	398.42118586593926	415.5517794119181	326.6317295869493	371.9694070886313	389.1144905591122	391.5077926531793	340.4409855702571	317.84026444581514	304.8117920770168	313.7090252284867
120.0	140.0	296.128160719175	302.47020198501747	319.69462947653284	337.065365392743	252.42945407281124	286.1230792101721	378.1419878420154	375.10789444210803	281.67165218045216	314.34982138959435	299.27633398839777	340.29546072221194	409.50012576536085	423.6541180316636	334.1631717526732	378.0344592955464	401.84682747324695	403.71874032990564	352.52158595240786	329.0519055616404	315.5136122828258	326.7736374486673
140.0	160.0	302.0092277312669	308.06263779035595	327.0324379671894	344.6345467287733	257.4479830845173	291.9630932761373	386.5597300511499	382.69992346572747	288.68186741571554	321.1591611255594	306.08847894669043	346.716202955598	413.6370039657115	427.01337050751744	336.23189778829146	377.93731316213047	409.3695910503588	410.9835413383897	360.12947393123545	336.39547954215783	323.61590558947233	334.32945246035507
160.0	180.0	304.2102810998572	310.63073953335703	331.1401932943062	348.6021872653753	260.18010102051534	294.8926157912247	391.91966329248845	386.9462727341782	293.0351502126005	324.80988574780326	309.96323472591234	349.62015427110583	414.26245918332285	425.6060173372676	335.3465347536999	374.5390612709767	412.76276671779885	413.95012198919085	364.0986664712889	340.1989066612353	327.8997362074556	339.2032009898175
180.0	240.0	306.21264091716387	311.7699537725932	335.10207118527853	352.5134830131941	261.7921209432387	297.03600809880515	395.78358873129906	389.4581010548914	297.5717434288732	327.90799807631663	313.5494540041232	351.17855282720757	409.23463141357524	419.43040805266423	329.01132343471505	363.26209772487096	414.5369633807066	415.2411389843336	367.55771430568086	343.9259403291952	333.9900191236452	343.171357605853
240.0	300.0	310.68538540675434	315.1768415888699	342.35844634248724	359.80163491213955	265.52741595913767	301.6674473113243	403.15901366608267	395.0941867636545	305.4074308122426	333.97577563317816	320.18690282790425	355.3641624431339	405.41381939996285	414.39802912011885	323.21337935405194	351.87476842221895	419.3926237753815	419.4868270235037	374.33372110875644	350.91879288703745	344.1189123058157	350.4264770549157
300.0	360.0	314.5083579919763	318.2971095135545	348.7995695554921	366.21377578074816	268.94908029476744	305.80695591753437	409.9824483377483	400.29720331665027	312.4076675334292	339.38249802833025	326.1047563339622	359.1377076788044	402.94457398405956	410.5810116230668	319.0946191674191	343.68213934033326	423.7684926238356	423.29490213159323	380.33910925117533	357.06598677832136	352.85617733350364	357.0641209064106
360.0	420.0	314.0568299090842	317.2233710085738	350.45069842551663	367.6130279846087	268.739090259344	305.81313377828315	411.3394323135392	400.2238882214958	315.0387430580773	340.17554180438987	327.54237358140466	358.17773345966305	396.00207559168695	402.2581802027752	311.68920391357153	332.6442756592094	422.6100439835061	421.60445850497183	381.198505083266	358.3228700366756	356.6098960702362	358.8570685927989
420.0	480.0	318.0225883069675	320.2018232582234	355.88270825058265	373.1854989928451	271.71607363280066	309.53138212292396	416.45996662533463	404.4435560711072	320.7585705945141	344.8180678515439	332.50802976237577	361.75100382703755	395.1440946296151	401.6637597939836	309.9953255691711	328.98579846915027	426.71196284965964	425.44053219299536	386.3941354840282	363.702540846252	364.4403722559051	363.9533175211403
480.0	540.0	325.54413009423934	327.42596868501516	365.4260656212928	383.0275677366887	278.17864297325076	317.0396995371896	427.2760760565065	414.23673345349897	329.99946327378854	353.6165972133734	341.34999696197974	370.0674778462334	401.69879303284586	407.95609783437004	314.46511375065285	332.96959826865907	436.5417952339688	434.99287648488735	396.26316194099394	373.2340258291939	375.4899811707342	373.7346134114456
540.0	660.0	335.00189466849685	336.3863724112662	377.4044198341934	395.36255671404723	286.2599862873336	326.4338612763933	440.6329390115707	426.2865980386082	341.70192953546155	364.6166282999619	352.4586416838299	380.352733216287	409.4787514654702	415.49267916460144	319.8100135959742	337.6517171953018	448.61367706130153	446.7107769304438	408.55851934378484	385.18654189006594	389.6077777499204	385.9196076639052
660.0	780.0	350.1752734308834	351.14277756275783	395.8052738102345	414.4220380262563	299.2495548370325	341.4039771388255	461.52489250655316	445.65205538590607	359.23551637757777	381.8303413001506	369.5664085180277	397.17909838698824	424.8658735763973	430.83908310320305	331.34061112490224	349.3629778098847	468.40920352811736	466.142617574322	427.81692771365215	403.6903137419323	410.3765973503249	404.6936499446891
780.0	900.0	359.1939904119618	359.96981484704617	407.61675756451723	426.50437905467084	307.25512445524254	350.62308378162413	475.0664172090169	457.733417349099	370.8623332868566	392.6656495078232	380.54173520276925	407.27890102062776	433.00924776059236	438.19463205539097	336.94874448398247	354.37283294175313	480.290469163589	477.60775160000986	439.9043463162969	415.382019572734	424.0631487435919	416.98061609085846
900.0	1020.0	361.573610429487	361.8690422765204	411.6960178083833	430.5620303782395	309.29709011136606	353.1539066201704	479.23544428029356	460.868376422117	375.4302036275767	396.0166043137089	384.2677705720566	409.5890727130564	432.3077776345685	437.0904013979565	335.6132207786112	351.8443277467565	482.98632416574077	479.983922724378	443.6437365622789	419.26163041983307	430.12184183958607	421.1072655471509
1020.0	1140.0	371.8548410373373	371.7057247842998	423.5399493380383	442.9479345420277	317.7713626593293	362.98738440376695	492.37308310703884	473.36659127531277	386.5433939321595	407.1853648086641	395.26445772418253	420.80015632676793	443.35257090292316	448.9488631417781	344.3764351335869	361.42074226962205	496.17421800853174	493.0900366391214	456.177298681785	431.3088514821515	443.6863125084885	432.9039794197397
1140.0	1260.0	386.37057456319013	386.38216127829276	440.33552245628135	460.4358089021501	330.3783144717059	377.30965541660987	512.0527183704788	492.1586801008759	402.0461752108587	423.28588122341273	410.95212949782217	437.37709491609684	461.51878527468415	467.12093061047153	358.77213075810135	377.1635716163526	515.7073940418001	512.4690040242886	474.18002138375607	448.32769634435783	461.3574266547668	450.23086095210954
1260.0	1380.0	385.30003450298665	385.3787869150831	440.7554603793586	460.5772576362638	329.9732766557935	376.8525208955282	512.6988878999565	491.8180466761578	403.1970752772696	423.2364601296192	411.32442830679037	436.3138269247412	458.0597642857926	462.2043997078095	355.09864636126065	371.85127176742566	514.4478460285537	510.8382738335342	474.05863887602305	448.389339220313	462.6443375444586	451.07486259064206
1380.0	1500.0	378.09831583531167	377.6043294238553	433.5918679822131	452.93915038948955	323.6831645939449	369.8892935619795	503.64063306369087	482.4104190587811	397.37328337127633	415.84693154451855	404.5647483443353	427.65709303959005	445.714233211116	449.5916335881416	344.71757190693535	359.59275546242327	504.18490225240805	500.3984361391006	465.76804731290315	440.896739965035	456.88459961870166	443.5635905057062
1500.0	1800.0	378.35725499135526	377.58287733513663	434.2973969810505	453.6144777206209	323.79025155528086	370.11492262089536	504.02586133418373	482.5086204185483	398.41130138784825	416.27786387998765	405.1818259411359	427.6881825308604	444.9915948588879	449.11973943228975	344.2183273597663	359.736514436108	504.1932392087694	500.34427525902925	466.2481862200466	441.5295835111855	458.7037008913486	444.1412319346371
1800.0	2100.0	371.00004754244014	370.10855819736355	426.9960230510004	445.7947483051785	317.6819758277767	363.2126511925029	495.3750706005969	473.5485389035182	392.3689679306404	408.879981812002	398.32807702004	419.303307897181	434.6337657858154	438.0701830423913	335.7196089777756	349.6797996040849	494.3025376552036	490.2908943463482	457.93550022269477	433.8596064489801	452.16243568875336	436.80428398392587
2100.0	2400.0	344.22157920019293	343.01892861098656	397.9082710347811	415.1395112410428	294.9586775804635	337.39152237247515	461.15253797991215	439.76376495857073	366.6489768354318	380.38557211448136	371.13082896243503	388.7484793114705	399.4674995051428	401.78342343141156	307.5515103192243	318.8904315854012	458.2268315380455	454.11744570140274	425.96687615797305	403.940070177219	423.2409051496144	407.1413285690643
2400.0	2700.0	313.1633715056226	311.7229247458427	363.00388371015526	378.57717516268457	268.31945370658474	307.0846461727675	420.2411378120197	400.12922683924535	335.1330532270177	346.5892990572765	338.5109859108557	353.39805878803065	361.17350767987114	363.1143003978653	276.2534074052676	285.78813696010735	416.54959672350094	412.611685606525	388.11910722850854	368.308590843293	387.5997477825756	371.367229512192
2700.0	3000.0	302.9808040446774	301.68489642377654	350.07904739244924	365.26459939868437	259.36493399020935	296.753915040873	405.26013067317814	386.53243261667745	322.762780932806	334.5705341675671	326.49063258702563	341.911884990182	353.2555553583964	354.8432900561594	272.8045169132648	284.3872323868838	402.9898966344307	399.46604590297926	374.67297350272287	355.411480040742	373.26270751830054	357.9432168231168
3000.0	3300.0	295.6231998819429	294.6244394739993	341.3684930014255	356.2128026906383	253.16163577316865	289.59266367251325	395.5707805206853	377.46586910989436	314.4948685475943	326.40077325764935	318.3805761114387	333.88912609928065	344.4753868983487	347.2909757966487	265.9282212977013	276.24011865415065	393.6029072437443	390.21277426593997	365.55079597543687	346.6118002869649	363.3288781480082	349.185354206372
3300.0	3600.0	282.90916509176867	281.84914144439944	326.6571064165769	340.86446016958206	242.2158491565168	277.0883667762504	378.3669731512583	361.0434332443678	300.9826092708452	312.3087948077791	304.65950676254596	319.4099915617329	329.319777148562	331.99243309195225	254.16758742109386	264.7011971195117	376.5007179003787	373.2580870061787	349.7570290513335	331.6803269918898	347.84507411979087	334.05884041835805
