start[seconds]	end[kBq/cc]	NAC.LModel	NAC.RModel	Striatum.LModel	Striatum.RModel	ACC.LModel	ACC.RModel	mPFC.LModel	mPFC.RModel	MCortex.LModel	MCortex.RModel	oFC.LModel	oFC.RModel	Midbrain.LModel	Midbrain.RModel	VTA.LModel	VTA.RModel	Thal.LModel	Thal.RModel	DMS.RModel	DMS.LModel	VLS.RModel	VLS.LModel	
0.0	10.0	118.40658291358929	101.63105525401463	115.31167052035462	106.52377597441817	77.65640469437088	81.90734034462224	86.94345718133326	68.51135026273113	58.195726162545554	104.1122045231822	106.87637174172897	80.06237423872696	174.86052942802576	199.43894987667414	137.94372433138392	138.18159427806103	148.728862098243	150.88139791593386	112.09613271414379	153.2944627435285	142.52923600933244	79.0047718850438
10.0	20.0	216.05374032757817	257.78140318507633	240.22311825043636	233.82482742670095	231.1435072881809	236.3246355565045	258.45380128758245	248.80151581263743	190.12403402892932	229.93803920684186	275.74894358916293	214.26686098726015	297.89485572790494	335.8603708880549	224.3367156326966	247.89141967452275	254.5343588791142	307.0357343862016	249.58235432515838	254.75162847040093	234.39838384820197	230.8613645038105
20.0	30.0	257.74840770234437	294.3409395649007	289.000103544408	281.6631992937164	283.64574831905344	285.24144635421834	317.3741857806571	302.56809348055015	235.9564418842451	268.73314856176887	323.1435148510635	258.8125624905086	357.5634125969097	393.76099698968267	275.47216755458703	296.71039944749884	324.81543609176055	371.2802454733214	301.76405428373647	305.9830222997468	280.93939283239746	286.2275278694881
30.0	40.0	290.14417936318046	313.22920533468533	326.17462903850696	317.59879090133103	317.7058736637293	316.03365134889515	354.3476751999717	327.8301589692707	266.95038560756683	295.724065042768	349.1404985553677	289.73631895927986	404.1858448034721	435.8018546665599	313.3469883967043	332.01577207585876	376.42222954592614	418.605374495107	340.2325172001524	346.1643679193697	317.32402854581056	324.4895054160093
40.0	50.0	310.993737596283	323.53199382970445	351.60055776323395	342.53742461254205	342.2488199428814	337.82238616184384	380.9738517904362	348.05149735591806	290.5353712143073	312.92887882094254	363.7208715287906	311.74503798996955	431.4240561918914	455.02295285467136	335.0259548335931	353.29994459946283	408.11531342652637	450.1430975048512	367.02199423589275	371.2819004127038	339.9417071705657	353.2094839685456
50.0	60.0	324.9805971661338	325.0850670163064	368.1520446951899	358.333908962725	355.6153710156853	349.11720573775807	395.4666628158853	358.2692127697314	304.2561171132227	322.0667593799213	367.17583397031996	324.1566270936234	450.1184053030502	466.5038390804825	350.6833226231654	366.37805057814	432.1600710963973	470.2410290025595	383.8199565309488	389.18679855576966	356.03491578788504	370.8278002014027
60.0	80.0	339.8978922254418	326.10144032723673	386.08712720384983	375.37504365402935	368.9801631588135	360.8451092023447	410.28576525473	370.36574721499295	318.71845815133014	331.6435978346428	368.0058890868144	337.04301880977175	468.56491191081363	475.9351371971041	365.3541370166123	378.5195121442868	456.230060813528	491.07709934873225	401.790839851769	408.2303132551694	373.09333997129966	389.9335747800595
80.0	100.0	352.87806313481786	326.2378793402104	401.7464268264521	389.9832370050881	379.4243229067112	370.65422275879723	422.53918867827593	382.294189509994	330.72930050950833	339.656243190667	365.5010592415827	347.57712731651577	483.56857151963357	482.6657814702828	377.9227958200693	386.7054159328227	479.1033054345497	508.2032647914043	417.0481787358448	425.63772556125565	388.5122746090132	406.8528076855774
100.0	120.0	362.92801566592533	328.8682087767586	413.81081622134053	401.12595803734723	387.2178856420497	378.9469506215429	432.24364248703415	393.3218297240297	339.4721663861598	346.83917205832864	364.7062068807924	355.64078009938873	493.3197793888381	487.50923154331804	385.5550584368772	391.2986991250797	494.5811617926343	520.5379336248744	428.60245315234295	438.7937356328788	400.2014864494605	419.7494638769569
120.0	140.0	369.2682851974926	330.743852353411	421.50789154611255	408.0584492707745	391.8225538073529	384.455317233718	438.51188078681076	401.24607414729473	344.65478041284973	351.3917364596101	363.39406266347646	360.56925207478605	497.6429643622029	488.9025098975021	388.96543570183576	391.8027996870368	504.27310155364063	527.2561792539323	435.7109676230204	447.3179433457143	407.70079364301387	428.37205975663267
140.0	160.0	375.4127041416867	334.1316748400192	428.5869073047837	414.35357988613794	396.1912788769782	389.9083549559941	444.42903702319995	408.74318006375955	348.96477735981136	356.3512230978672	364.2401081930308	365.1998909335576	502.10268790943826	492.71690848079993	393.0656243653459	392.23804630334683	514.5250309020576	533.3040203988688	442.1546576226818	455.66020185894564	414.9706086089734	435.9014443677804
160.0	180.0	381.9424836528121	339.3538402331973	436.0479468872278	421.09833552802843	401.7186443391563	396.46725366388097	451.50216744849996	417.3327016956379	353.82111111829516	362.26663102073917	367.7720619486815	370.65588639656386	506.4661406264732	497.050350512022	396.44399706287015	393.25149294370965	523.1180837420167	539.8919673878205	449.14586411262155	463.8637163946529	422.2257968556223	443.93458764946524
180.0	240.0	387.97710073565344	343.25864366927533	442.70815344642756	426.77082815289816	406.37121887964685	402.5263088920999	457.8792327603538	426.5005782134237	357.24322585142755	367.21125523827686	369.6425949701374	375.2040906621543	504.326870790676	494.4696928662592	393.52447567101046	388.0156177671436	526.5270619985816	542.6650941196075	454.9141474470374	470.72798513584456	428.3650806805185	452.1548059090161
240.0	300.0	395.31811241111797	349.27931918825647	450.05606337000097	432.59354200078377	411.56366886202755	409.64803098448436	464.87671411891176	437.6476095780855	359.91499201202265	373.428202119392	373.96123979778514	380.0632019658593	500.65583650942796	492.69627642397245	390.21947679243976	379.8673633799542	531.4469993780712	544.246015432863	460.77765923857436	478.9002728344791	435.3651372598994	460.97292455127723
300.0	360.0	405.26943743979155	358.58872713777475	459.93968012722655	440.9719669200529	420.1936895273965	419.52894056604583	475.07458942668876	451.2749871534123	365.0347066843542	382.2518498302143	383.2934560503526	387.6473110547685	502.49136777038547	497.46558424577347	392.0333106286277	377.03467558179136	541.2238802077474	550.0653787556363	469.52963100525614	489.94036759738475	444.92517904502233	472.2025409076345
360.0	420.0	415.43387651049716	367.335703480163	469.6064103626802	449.6014486859836	429.18741161983627	429.37207583308043	485.41435609421444	464.1057104076127	370.61012538560686	391.0053072832201	392.7532587418467	395.4554018352916	505.7770280201328	503.12307805698657	394.73941410134984	376.2834430923204	550.6910464044134	556.7880624482656	478.61884102879725	500.6068793964968	454.5638684718226	483.1266121709049
420.0	480.0	428.1892474642978	378.92904885629963	482.50159825363295	461.02620160483383	440.8113077038472	441.70758899562077	498.58967084489893	479.75645556349383	378.6376411503098	402.23976000959215	405.0179042132057	405.7242886224359	514.9256007534046	514.6609799100722	403.2182439889321	380.06866221682895	566.9173393559546	568.0065592415739	490.70453266108643	515.1768232243801	467.24170667309323	496.9739744603869
480.0	540.0	443.0535202829179	392.0473178543678	497.81602620731434	475.03146742740233	454.9377537993486	456.3365357093342	514.5287720250692	497.46952855344944	389.13161541016314	415.44435890354623	419.26303005320017	418.27887381081246	527.7405434489234	529.2354248734567	414.406327341826	387.38582528666853	585.8924586112479	582.9469483111098	505.5780481778851	532.2245633819363	482.2756061621737	513.4305848275942
540.0	660.0	460.4159176031046	406.4115488271503	515.7380118756026	491.16402287632883	471.1239733783211	473.23266026043507	532.9081510034224	518.5432694710279	401.13887693726895	430.40320264779285	434.4853340808041	432.6515523290463	540.0979257636915	542.1740990318416	423.958839703965	394.2303214657114	603.6457109141455	599.3967216152025	522.6711456043369	551.0615438721894	499.18754172455203	532.9416789863194
660.0	780.0	472.8351369404232	416.2027321916745	527.32879324801	501.39910082029684	481.72032039441734	484.9412980203791	545.182901095204	534.8787092475454	407.9124524046466	440.460477022529	444.34111057508136	441.8395705883931	542.6414865733171	544.8156955397417	424.6572193428929	393.8300005140125	608.5609144928823	606.8123480060398	533.4321593464609	562.6758559420039	509.78557183853326	546.7346676940984
780.0	900.0	487.2986878140051	429.28616364557314	541.5469771892774	514.114599904596	494.8660055931293	498.9919940723251	560.0989715386162	553.0172508298222	416.98334943037736	453.09956178756	458.2628704608545	453.40448856982727	552.2541990433685	556.4615051092298	432.69133041356343	399.23854876842285	622.5822757306258	619.1296944103727	546.88622735305	577.8181619733457	523.2829141134478	562.3909780555415
900.0	1020.0	503.17549699046606	442.8548359329537	557.992170679743	529.0948885297355	509.9628023906834	514.6352304390987	577.1682433780321	572.327476925883	428.4182333647491	466.9964693258986	472.83637143503483	466.8314195303989	565.4943064032074	570.0293503189929	443.1494603806344	408.0663527760857	639.0898506013353	635.2322745866338	562.7930768291288	594.9973111540006	538.6717592362736	580.2682988305196
1020.0	1140.0	507.63244730530795	445.78867261046724	561.7668520039045	532.1407650092447	513.3961276560825	518.7616468015198	581.2808110877484	579.493066518931	430.12432922169455	470.14341906870806	475.4187644837576	469.6500864489303	562.3179641619578	565.7145933003159	438.76854078941665	405.2187690332958	634.4898638901221	635.6600883330323	565.9488823388625	597.5033652343682	541.2222045708002	585.6168376074303
1140.0	1260.0	504.23438695213264	442.5766697913881	556.6611494587659	526.7948234951921	508.9292720974538	515.0257967442797	576.4303440908938	577.8977001748158	424.92843173841186	466.2801257631197	471.5122099407794	465.210874872995	549.9272711681315	553.0176932606487	427.29584745147116	395.75311173324616	619.5708018955519	625.9336593350789	560.174642993322	590.5362475853768	535.2082995282369	581.7773078913532
1260.0	1380.0	499.0685581661052	438.1121264866631	549.728131584517	519.7878984928309	502.88301481231423	509.5009366660356	569.6684370946491	573.8441129657793	418.5232981479736	460.9426354992568	466.5969418363865	459.32280874930916	537.865493511949	541.158234310598	416.9842669263415	386.66113249382863	605.54015529118	615.0178622069019	552.674762500644	581.9547395871426	527.6997803496329	575.6229825891061
1380.0	1500.0	497.5771381573649	437.23296173535005	547.1438184975414	517.0450399451635	500.8118615768117	507.73208122094724	567.2702799362312	573.1554497055868	415.8345659710606	459.26937698533953	465.79968847156283	457.1579935375381	533.7880254246231	537.9375241662515	414.29471589213324	383.4966753380627	601.7342463984683	610.6428707024606	549.7470845230168	578.8856506590097	524.9307798388187	573.3931538303318
1500.0	1800.0	500.7701825077132	440.24586413608205	550.1594705300631	519.5437588159294	503.6376844917324	510.82174879636113	570.4634536674522	577.816931055231	417.61081463709326	461.9779790993469	469.14590865551526	459.51813236852524	537.1868466553949	541.6385909355357	417.91936249851045	385.8064545013195	606.5861493626116	613.4333988392468	552.4035085621679	582.0529263732132	527.6731253402461	576.8997924600055
1800.0	2100.0	493.09812237500944	433.36463078394814	541.3994466853221	510.78074801602025	495.5676765682736	503.1703123924801	561.499036270394	571.3213937399147	410.09983154599524	454.6375687867459	461.42085255205916	451.9448431615325	524.2486391360724	527.6993985183897	406.55024545781043	376.40362567753016	590.9760727110862	601.2473490698831	542.9581336488231	571.4879833947322	518.2486644755094	568.8476907939723
2100.0	2400.0	467.93460879032193	410.4137623350956	511.6259128635212	482.49566601002624	469.01581399839085	476.74804602025245	531.3523353980191	543.7857381473435	386.7475224169276	430.0950688096966	436.6958973396072	427.2504914782747	488.32674266920196	490.9493143940051	376.629185270146	350.59618562443757	548.571123793054	564.3683794140213	513.0093065645307	538.0280202643236	488.40770180872204	539.0941506826852
2400.0	2700.0	448.6583492305025	394.2594323653462	490.20187352928906	462.13248020890325	449.53530085476535	457.19533154617227	509.3124316354162	522.2829739628872	370.13456309723324	412.522014878135	419.75660476977527	409.3800566794146	468.4443535609629	471.9903257648632	362.4884326185689	336.18983542409296	527.4049153212652	540.4057117671922	491.2531193480665	515.4960613559809	467.9404377449108	516.6946512322487
2700.0	3000.0	435.039548425551	381.91879824666904	475.074606078427	447.93954439177736	435.6871091789553	443.00160373307784	493.5572949814944	506.18612796568436	358.87558352888357	399.6918001630541	406.6134270907197	396.7959358765532	455.0307813021367	458.30633464962705	352.4817290307676	326.7662555025115	512.5411770235922	524.1518316563385	476.2203647602407	499.73499887944496	453.61333692629574	500.73258055679366
3000.0	3300.0	424.2662289788638	372.93318427115526	463.72547569061305	437.2636371471073	425.21149235877965	432.3030929461728	481.6949271190601	493.6932384124981	350.4185285874799	390.19232439495494	397.17025135581446	387.29553166847165	446.0780013546712	449.64598204656033	346.2318854121038	320.26234059501735	503.0966595252281	512.4390552379163	464.85299334590576	488.30101354318106	443.0897774686475	488.470163871124
3300.0	3600.0	416.6807559359707	365.8927987184871	455.34611003941905	429.472686165694	417.4618053010108	424.2885806925195	472.8968638823445	484.22136258478537	344.31227656166817	383.0121650934311	389.6824569337835	380.3033496005604	439.0528332434558	442.4185199168944	340.9026467748382	315.31970440278343	495.21780907852946	503.7861420385403	456.6057586445773	479.766200841947	435.3106482721266	479.4492771427957
