start[seconds]	end[kBq/cc]	NAC.LModel	NAC.RModel	Striatum.LModel	Striatum.RModel	ACC.LModel	ACC.RModel	mPFC.LModel	mPFC.RModel	MCortex.LModel	MCortex.RModel	oFC.LModel	oFC.RModel	Midbrain.LModel	Midbrain.RModel	VTA.LModel	VTA.RModel	Thal.LModel	Thal.RModel	DMS.RModel	DMS.LModel	VLS.RModel	VLS.LModel	
0.0	10.0	88.96333393908776	91.10853228523106	98.51254191127938	107.75248424136875	79.4847389960054	81.53698391334015	99.8719533394347	101.83228915703504	89.25613016886095	87.74056400594073	87.65774139749415	91.03320340182613	118.13655424665876	108.68837991742677	116.57449110504436	104.79698872526049	104.22954459867607	111.29914190293317	106.8845784648386	97.77103727552534	107.50215279458546	101.1410596369295
10.0	20.0	142.14206914277284	156.85557809265242	162.1094958133602	183.56882259180333	119.62647346240149	124.68020530204049	164.34097531995783	176.2066762318597	138.8677041909938	136.55857319566223	138.9065845663687	148.5121125231189	206.8850932839114	207.8795046527221	200.89514676858644	181.35077214862068	185.9604194071932	194.93812608609824	185.5918529229578	169.71296903162528	186.65748167627393	166.90986620864447
20.0	30.0	173.01227635206513	194.0215355991077	198.79727335958074	225.791264192006	143.02960063895557	150.357879772054	201.23949316147386	217.1454406962993	168.6517903728641	165.41858389141345	168.29892220790498	181.197159106348	255.00935784931195	260.95699566863783	242.40437254384307	222.83287697306486	230.9762603482892	240.07944582602138	228.7242741767736	209.75810767371223	230.1898611718134	204.52692544275874
30.0	40.0	198.76938376082947	223.06986663973964	229.48241312187204	260.34834098459106	163.03750307717243	172.09762646737857	232.0454191213713	250.12570894758306	194.17589012946402	189.8814286467986	192.84023727126333	208.0808683877824	293.748391618359	300.86404672854843	274.2426702550014	255.8243092953852	266.44003956157906	276.0653290520594	263.50257049212456	241.60548003727664	265.37121225759597	235.8640832928025
40.0	50.0	220.38803672795507	247.40165742936136	255.29117334517315	289.2298451828237	179.32636005176823	190.1910431240091	257.65516451551076	277.9905848890713	214.99805392529504	210.17345689210373	213.14201494049593	230.62988107957472	325.9764211524919	334.38703075022124	299.3235541690087	283.38810117240314	296.32735454155977	306.1706769128423	292.8340124775138	268.35252987037734	295.06411852126547	261.91832582843057
50.0	60.0	234.68520696918932	263.77278455309556	272.8463955711542	308.6228593169051	189.4718454198719	201.82967091218555	274.8148481439837	296.91276774702	228.64903302001258	223.44312990627725	226.30124782537473	245.53693028671572	347.39146130476763	357.4682211518219	313.7213044433988	301.49389206791193	317.019752346955	326.2398644448728	312.635533675086	286.65809177924166	315.2214130677826	279.37743268598706
60.0	80.0	249.8615089706601	280.29721309700335	291.853052874533	328.8806003928255	200.0289911566319	214.0993723109943	293.03951016063303	316.59318684210467	243.25166427553648	237.56406008006442	239.9310238950012	261.08516312060226	369.1057451660195	380.06993931691494	325.93465924524793	319.5348977633362	338.33307799960767	346.5424917896096	333.167064495407	305.51686601589944	336.2483537529803	297.8762549880585
80.0	100.0	265.89320338587663	297.16394780609943	312.25081220742385	349.97673255617394	210.9977576543116	226.94208689451364	312.2031065036719	337.16275486510267	258.51760939712597	252.42082885432714	253.96388316014517	277.2985212167205	391.13794333345766	402.63998631974397	336.9899128843774	337.6413758602621	360.49849214602597	367.30125673218265	354.53150034725707	325.0947712281893	358.23947470823725	317.2937063937237
100.0	120.0	276.12759099028625	307.54322622858103	325.9725830419565	363.399283877718	217.33680175678418	234.73278111563525	324.4844219310232	350.49405715973046	267.87667191325266	261.6733188219195	262.3034151705359	287.43879650032744	404.45125678128727	416.4848268928279	341.29406863596466	348.2337251453738	374.9941372164863	380.1561081772826	368.22886625697055	337.6891309867468	372.5239899968694	329.71057988542793
120.0	140.0	281.46581935613295	312.3164425865484	333.956111907734	370.1923928634809	219.93831267513298	238.35827962889687	330.90157199151304	357.52088143287364	272.3834918430948	266.25790814770374	265.9005353241182	292.42278475983255	410.20343051003175	422.5517079488286	339.97091285042154	352.3519072227518	382.72977539853866	386.1599034121468	375.2458269438596	344.20118527582855	380.08144949298844	336.15379943434124
140.0	160.0	284.65952550256515	314.511246950785	339.39274582638427	374.05289906327084	221.12910249758187	240.2228073047984	334.7811772077318	361.65935456138624	274.90684723476693	268.87371331504085	267.4918141689902	295.1310814896564	412.6367646260257	424.90607927428425	337.094079927263	353.6069035159112	387.2911796837639	389.1922297724876	379.2316395618779	347.90088667075764	384.57523249573813	340.00844776437583
160.0	180.0	287.7147034544762	316.54971286838315	344.59008932966844	377.68896456077476	222.4536423577924	242.03734590336768	338.4733354157779	365.54667345585244	277.326748135853	271.395412702126	269.02505652987753	297.70420414939815	414.8830709411341	426.9676861886315	335.38287595127787	354.7447276092976	391.5468677602346	392.1870575465475	382.96558513755525	351.3645766425339	388.79583981385787	343.6723729091445
180.0	240.0	289.40447643559963	316.0294667230555	349.70102072484934	379.2795404410582	221.7996576028233	241.8929140651941	340.621193296916	367.92275999915137	277.7212494293034	272.1892329896559	267.96858048218496	298.3456120107549	413.30894553820633	425.2407372202495	329.1095086310155	351.93820509585146	394.3799413024077	392.92660226710257	384.77500163679684	353.1419877276779	391.48488164586223	345.70516920436785
240.0	300.0	290.44756298624134	313.7672799449943	355.06399061386963	379.54756696288837	220.3912156571919	240.80454819259117	341.95895990798516	369.26276042110743	277.19711823557964	272.17205600842107	265.4961276599612	297.8780500603235	409.08993293356866	420.4406431983887	321.3770396078872	346.48285913149886	396.1037741134041	392.51867806079173	385.2569253062189	353.7424833334549	393.11100938483605	346.7304529783778
300.0	360.0	291.89223699021875	312.5129550607159	360.39794957809045	380.59552665702756	219.9725922617607	240.3950138884674	343.9136440003565	371.25218064353965	277.32024626618175	272.76229333696824	264.0548009039046	298.1509829966282	406.5617076597551	417.4000564596472	317.8994004792195	342.8575539920853	398.39324813644515	394.1376916084448	386.4754551639409	354.96824963903373	395.37284271627385	348.5391925153868
360.0	420.0	294.35172440017953	312.8045063529277	366.4770325886086	383.1331051097724	220.65269585619097	241.05048345746872	346.92792886262987	374.32892646503416	278.7595536664069	274.37920901844615	263.97608216044887	299.55340644375417	406.34573082426147	416.6520801373063	317.15140678639114	341.24757908480075	401.888306501657	397.56857623277676	389.1475959291799	357.42865134628266	398.7729851569327	351.4482672446249
420.0	480.0	298.97432304067365	315.83017695777414	374.65585218080656	388.6039515893948	223.30273773632317	243.78786774899066	352.55261907759706	380.18364354503814	282.4478224253835	278.20338315991216	266.39297748863567	303.40749170504404	409.9052690052408	419.8083593491105	320.17083149010494	343.37887889423	408.31160145637006	404.4081644186699	394.707721427775	362.6234493702565	405.198573434969	357.0343291498161
480.0	540.0	305.4744851947503	321.2401951077045	384.8299764692386	396.72205476540375	227.57503779416223	248.2914108728825	360.3931343734823	388.41746163237406	288.2240202080188	283.8993801379624	270.89630910594286	309.3486031027561	416.8581579514755	426.34728841321106	325.9275936206491	348.4053352458953	417.2317590195218	413.98269956697095	402.962495508475	370.14189220284703	414.1041788812919	364.88943694113635
540.0	660.0	315.3676231104698	329.99496235470116	399.8294748663456	409.1800025710596	234.09824735514673	255.35587028746855	372.20913841174604	401.06037813212544	296.98572035997427	292.6463644001117	278.08067853795836	318.5533682613028	428.0128844449465	437.2703117397782	334.54592617019915	356.8734014652734	430.929082960164	428.48479010213833	415.5955961924989	381.7841435382162	427.7176913734173	376.75140323648196
660.0	780.0	322.39941292042937	335.2873886430509	411.9173065691572	417.50270719379097	237.99559354691328	259.7025876882378	380.54072890111905	410.046281263012	302.4340602959454	298.3806955395821	282.16833574095335	324.6526027183688	434.2250400524608	443.61637168528705	338.1555167511458	361.2319468548682	440.9193862749707	439.13957475044367	424.4476389865366	389.8747859382611	437.53960513000555	385.046581510397
780.0	900.0	319.2595493314656	330.0638982346546	411.2717109420353	412.68995128648976	234.24387036800104	255.86028052441816	376.8708095674626	406.39811597443713	298.15245645072036	294.7417480822878	277.2028832848806	320.55379955592275	426.28960180561535	435.67833103847624	330.22650907269156	353.62269718418264	437.2070763982342	435.8452486355194	419.76040895378554	385.97418446182206	433.5879535629372	381.1502636916757
900.0	1020.0	315.2678561574962	324.3372840672951	408.6543529650217	406.78323632910036	230.47738363421686	251.7203240240624	372.0427134041291	401.28090373753247	293.4127705165873	290.4539701534825	272.1516056167012	315.76367138710907	418.2427131407835	427.3324769992138	323.75974426112697	346.32209110891824	431.9528035142335	431.3268002415312	413.93438112038683	380.768694008905	428.1955182843026	376.2036047673894
1020.0	1140.0	314.9587818430839	323.16676252516083	409.8014562594009	406.0851791817339	229.85836588649346	250.95940163384367	371.70621796486324	400.92388005147996	292.7487457733608	289.88984979278143	271.10032041286917	315.0198500926852	416.58356964192586	425.503052273169	322.87765456660645	344.64188496133295	431.63711793416525	431.83939979847963	413.2850112243374	380.2128525294361	427.85767211208105	375.76292950629045
1140.0	1260.0	315.6655927420169	323.4396869047234	411.7343137418535	406.8483326327632	230.13449724927415	251.23656996581468	372.5376321347183	401.8808913082385	293.22920487050266	290.4079098519345	271.27010962048035	315.4719593966614	416.92302649687946	425.66737012956565	323.202360289905	344.7929638813304	432.7113920752704	433.4901024331009	414.1030567848485	381.01177747271083	428.9222133815493	376.567031978492
1260.0	1380.0	312.56652768687997	319.6357656754506	408.9538541729525	402.61015400206804	227.3562083709055	248.31576498584056	368.8435558963576	398.0153345360305	289.78728528401376	287.20870306304124	267.90604153895487	312.05651631142155	411.64518069912464	420.52696268327117	318.5009063042643	340.18877549813055	428.68029182456615	429.7153459602639	409.89875061228497	377.1599520900879	424.8296110984801	372.7832907289376
1380.0	1500.0	310.4589536451212	317.08913369597366	406.93878641123575	399.60652481373694	225.70504398338113	246.4438192256344	366.31319617196	395.2748455158114	287.6878216964808	285.18509317342506	265.7651072926146	309.74977299837195	408.27637720658913	416.91224349982565	316.1143387679358	337.3004504980096	425.76836514775806	427.1830003596577	406.8599638337133	374.4932918350427	421.88965484429536	370.2095766958456
1500.0	1800.0	304.4546401290092	310.4182627505228	400.3114120530967	391.6379962907678	220.79122598941785	241.25823874858406	359.1554593710095	387.7224477586034	281.62342399961005	279.36219113427853	259.92122084567865	303.4254485019032	399.35579493341703	408.0135232910811	308.608415226479	329.7488128507023	417.809500196175	419.13558953620714	398.90960615339975	367.24073117384427	413.8711647964028	362.8127720003868
1800.0	2100.0	287.8456844047735	292.5594450939786	380.2661825357708	369.7396892176688	208.1532515907901	227.46383503338524	339.40516411728953	366.66195064414484	265.43252490063713	263.67431065522135	244.7155306995995	286.3865923999465	375.729146486465	384.0767675428685	289.89579654516433	309.9157102466694	395.3034085996193	397.19948252508476	376.81845077788205	347.092117683636	391.38284916352734	342.9313226704939
2100.0	2400.0	272.4889438196512	276.6048485466986	360.78359258120844	349.806400188534	196.79374884815363	215.10040562243324	321.2318328790242	347.1151889688632	250.99547357503337	249.44720626912272	231.28507787197907	270.9106939291847	355.06634531357406	362.9782160498651	273.92502927706477	292.79040301711836	374.30656881897426	376.15876295934277	356.58070210277447	328.51560203008165	370.5247619970354	324.4503146799893
2400.0	2700.0	256.949246293545	260.61809411961315	340.7440743519175	329.74476094458663	185.48849909945582	202.67700066700544	302.89074225923025	327.36435077884073	236.4916875605976	235.11397377703233	217.88701303913825	255.3595319220847	334.43321314972553	341.9201244557292	258.04017829444365	275.7055909007958	353.055070630821	355.4472979545118	336.1803824655836	309.7628803067751	349.44723581495487	306.09928579493163
2700.0	3000.0	250.62897479593732	254.73221079842594	331.5443660914576	321.9058941078312	181.34999920239872	198.09943199292496	295.51074041902496	319.16245668983373	231.2487913287923	229.62086761273073	213.21956492752804	249.3337369471189	327.4017017651073	334.4428557622968	253.2731955927969	270.1826192762739	344.1029729491163	346.20305561529995	328.02976296365796	302.1267253062802	340.7286068828502	298.3483121867141
3000.0	3300.0	230.9512653204118	233.94187560885968	306.94688518970554	296.17591404940674	166.20016362360286	181.86300937572025	272.1137033113136	294.33879583260847	212.10962061692211	211.07730620973675	195.263923322405	229.29684153705054	299.7979469304382	306.8178405785381	230.1283511294903	247.00162271124515	317.575823094545	319.0868583575879	302.11441412238423	278.4784187478735	314.17751670355057	274.78336114684487
3300.0	3600.0	199.9985753222881	201.40558031405436	267.79623013961117	255.78048267467392	143.22262787463507	156.71806223697484	235.42925509086504	255.0009208519206	182.6268954633992	182.23707020842676	167.82787708947694	197.97287632329358	257.15943986516737	263.50009701549925	197.10524682442116	211.4308868650451	275.3553113692804	277.2978944250475	261.19585890258116	241.01481260801916	272.1549938792711	237.80393325123035
