start[seconds]	end[kBq/cc]	NAC.LModel	NAC.RModel	Striatum.LModel	Striatum.RModel	ACC.LModel	ACC.RModel	mPFC.LModel	mPFC.RModel	MCortex.LModel	MCortex.RModel	oFC.LModel	oFC.RModel	Midbrain.LModel	Midbrain.RModel	VTA.LModel	VTA.RModel	Thal.LModel	Thal.RModel	DMS.RModel	DMS.LModel	VLS.RModel	VLS.LModel	
0.0	10.0	2.2907921736891073	0.24970128639134678	0.20675026631544902	0.6439359986639634	0.0	0.09922962847816534	0.0	0.020148897807591708	0.006145254532838301	0.0	0.10774674039578805	0.5175658128093261	8.392797433605045E-4	2.6741754185964215	0.03615224772501712	0.016011980206726825	0.9217958978881461	1.1701802768802834	0.27273285754309523	0.7137965609200063	0.35285574351755256	0.0
10.0	20.0	95.57645993449393	64.24845322992789	65.00024327223991	77.7401576849532	32.15390589935935	56.89475323093619	30.969113722490683	56.50785322575852	44.99687532703689	41.59410312649436	57.60180026292466	77.37483023857646	53.39400853635064	121.04457568466293	57.91222120107744	59.190432310274986	91.96216212470495	96.71272242868943	70.78827038879675	79.61121688944992	79.53439808717202	29.22950531543816
20.0	30.0	152.242439770213	145.40837000351829	151.09023029423895	163.6482753689083	114.9134162858191	136.69640768593837	150.10265216391403	168.30478161443324	128.45006897408894	156.8333148126535	138.35868575426213	165.81872789280757	185.35395206052212	223.628889830312	164.19320863667895	184.54532902241348	194.3165614380183	197.03433263648492	168.72832355003922	159.59077425839163	183.41941603924633	136.5898231904338
30.0	40.0	183.03281534515838	179.74599527233985	188.11890846302353	202.12622537230592	147.53787654322616	169.58046844821274	211.38278087816536	218.18588200879918	162.15551538436853	204.87850278617802	173.70956468938346	205.2067445752671	246.60418436941958	273.87885964190946	209.35631382933707	240.34864475476653	241.3201656598473	243.6541438588112	211.77352229519263	196.1933054279403	218.18983694046133	188.48472355187064
40.0	50.0	208.3625426160782	205.48885806637182	215.6464188320118	231.17835564845865	169.24165187415417	194.04737622556053	246.44676016274448	251.38613988754395	186.31510090441444	228.8877884592715	199.11257464656953	234.49984767963085	284.18270384404343	310.8988017885999	239.03903751969978	274.5344638303023	276.1429887747898	278.5395566775148	242.73338817772066	224.3543194549363	238.21442116632204	218.4080060866841
50.0	60.0	232.0260468766639	229.97138714448178	241.84145373511282	258.7656088193513	190.27027095706532	217.4452645357053	278.3370563481822	282.4591851165843	209.57965671233632	251.26244507929795	223.42474034024136	262.25832287648285	318.3336717674636	345.1323832581239	266.597754771726	305.7285600975825	308.83536644991335	311.2419185917325	271.91120001976196	251.04472493184116	258.44189191750826	245.85524259540645
60.0	80.0	255.43151476687106	256.25372103191853	270.46526068671307	288.2784160010966	214.59916498969284	242.89243467266806	317.15165367793577	317.68814089676846	235.8710630814227	276.61263501633084	250.1548793661359	291.8458252365132	356.9876715583448	379.23027791228736	296.3173168983869	339.4275158103353	343.74413416668216	345.82436479016224	303.73449932236457	279.3675554572479	278.98629378827974	278.72686120269117
80.0	100.0	272.5679359930844	275.25623438243775	291.82565727876937	310.0906472040069	231.9486507930298	261.46915495843876	346.13134087619574	343.51536384738915	255.67241240159862	291.26169375596413	270.13055238994264	313.24867205118005	383.36868764247845	401.3053678809539	315.4054814227518	359.96089763834107	369.1275026906226	370.8339052450223	326.8993238092589	300.46265724921506	290.3643157637193	302.29751126084113
100.0	120.0	287.2061218498869	289.5732003400183	308.08779080750423	326.9419118213698	243.92049235295272	275.43595883824855	364.361897516933	361.35837398624204	270.3475357357872	300.96054085821106	285.33024196322185	329.4125506099465	399.13219057508434	417.2572724336439	327.1693662281299	371.0336041960199	388.1887753827489	389.75908325292085	343.86166917882554	317.1381536719893	301.24792704756743	316.8212261651176
120.0	140.0	295.7470377333683	299.2397086767899	319.61969926874417	338.4022064032811	253.10562374785195	285.1617119089027	379.539959701406	374.693262864244	281.4373033532237	309.89127511368827	296.243572910409	340.1820717645951	410.3912756418022	425.6681875562171	334.49330500838965	377.51082970499795	400.99889597340274	402.22405638077873	355.68885938029626	328.37687233513697	310.108657965332	328.7556110489283
140.0	160.0	301.6715202654374	305.02011576110834	326.9553121650649	345.6766757321002	258.11007189972946	291.0741614013509	387.6421797131234	382.1404051811537	288.42835780532846	314.2305534343715	303.20758053326864	346.61697785651404	414.4816855090692	428.8899466540611	336.48703015485086	377.548858883067	408.62882455266464	409.6211490390813	362.61459267706766	335.75663418268306	315.78121448623574	334.6895960731308
160.0	180.0	303.93359993940516	307.7237795813119	331.08215531067265	349.40750662112447	260.98246909435903	294.12853956909726	392.8957414094766	386.2456791985006	292.8306234941286	317.0484893933053	307.2394103218841	349.5112058158168	415.1506141471058	427.51657973233375	335.4623496922279	374.4209358983988	412.13103002228013	412.80928424976656	366.0413182474086	339.6085585304688	319.3323587043701	338.3149749057492
180.0	240.0	306.03172300825656	309.3323582928087	335.0383578564318	352.7007980455334	262.4614238950888	296.3637379398793	395.9872407599354	388.5101699757738	297.27650163136343	319.03979284549797	311.22676518073115	351.0231228461249	409.79436348797464	420.7229573369156	328.87214030949315	363.0972843606409	414.03410975896173	414.26384739499525	368.08351909304275	343.4250846243199	324.29725987898746	339.8768734622456
240.0	300.0	310.6296916466127	313.3348405022461	342.2885203381392	359.1949776489385	266.17747632620393	301.2573522605652	402.3072954695979	393.83695775771304	305.1421177904798	325.99862324700797	318.3873498053119	355.3697414428993	405.932028646799	415.32174348303494	323.12877447170365	352.0957476434924	419.3128635215701	418.96487866436723	373.0646379775044	350.56009778144335	335.4459625700573	344.8428066150087
300.0	360.0	314.563654053203	316.9349519830652	348.73039399193493	364.96868943612606	269.6802230148728	305.6955081377897	408.3577134655842	398.7994733800405	312.22031550057216	332.6675614529948	324.75694700602884	359.314409358256	403.5020499721746	411.34833108995525	319.06629122454274	344.2054773917697	424.0963754394614	423.2316488466476	377.6652305706106	356.8271807658154	345.4541398023458	350.5081735343767
360.0	420.0	314.2164161153549	316.3074869447197	350.3841497620408	365.81882892734035	269.12352265051146	305.51692335063603	409.08448216265356	398.5445663314756	314.48708787714077	334.10155005591434	326.63431472829944	357.875152768273	395.8307238936641	402.02907710062016	311.0132314351969	332.7754656064885	422.55117562629454	421.26541280655215	377.3452014836458	358.04056480165156	349.4584668158916	351.9960045553024
420.0	480.0	318.2520614492979	319.67738095800297	355.80200284381306	370.9288163204385	272.12885826332564	309.6418907670777	413.5142379757225	402.64375211122905	320.362067553075	340.2933890242486	331.9589553717358	361.8863957108319	395.20841442195416	401.7395795379206	309.6968232186491	329.52112982651477	427.31899148007835	425.75077065348745	381.5682130028177	363.76536272961005	359.1055915136657	357.2418685324188
480.0	540.0	325.83013219771726	327.11837662664755	365.3447560132995	380.48522086919496	278.58905952684995	317.199199060463	424.00932405110524	412.35644992780493	329.5457885802062	350.27113013035193	341.03728579097543	370.14228184987195	401.6939753075276	407.7489831425166	314.12469298606305	333.50694735833514	437.1681963172772	435.3096298296496	390.88602927024306	373.2760221732528	371.1636142980533	367.7524748751297
540.0	660.0	335.3632235096748	336.38185444751906	377.3191790806234	392.4744662744397	286.58708102154804	326.6824496708252	436.97933177698127	424.3413072410023	341.1630300687596	362.06487743630004	352.47876345603476	380.4271245283729	409.3559485283364	415.1340783159907	319.4043533327239	338.1315933570108	449.37866654882396	447.1946776923937	402.5502073129701	385.31216611173284	386.1315005007794	380.9132788500337
660.0	780.0	350.6141021318383	351.4170014012014	395.715597805832	411.25437874644183	299.64131726997084	341.8129089918414	457.60245072755004	443.6948823648542	358.71256105713144	380.29782363558286	369.9189347976414	397.39897882406456	424.7991670133217	430.53409229308954	331.0135585871807	350.0363028367716	469.497147616397	466.93411061925383	421.3855784793545	403.9010824945423	408.1195748510292	401.004898737085
780.0	900.0	359.7133689098472	360.49986251282485	407.5305233677352	423.17369821529843	307.70657294034515	351.2256716869794	471.11593181157536	455.8294198874195	370.43293754250874	391.618357118417	381.22242986697114	407.53340313522494	433.08370119262236	437.9132742782557	336.5923751553471	355.1960029159808	481.6040201023718	478.5657458885726	433.3135247200467	415.67806779390685	422.43989848030265	414.3106265125087
900.0	1020.0	362.16423124532577	362.6884217826703	411.606842978031	427.1446951049206	309.61180472483284	353.7962313840099	475.2828868096326	459.09316718841217	374.78791594150715	395.6329410727205	385.28871369698004	409.6902106014539	432.05030646330573	436.3988018081135	335.0910798607335	352.4572570943107	484.2109901652333	480.96486711486847	437.0549167673016	419.6415377979162	429.2206989533972	419.2648363346392
1020.0	1140.0	372.47626778716665	372.66747547362183	423.43930519118004	439.62678914202587	317.9896303325359	363.66793213703215	488.55803541400167	471.78851541078353	385.90581827023857	407.6790088784559	396.46273616732077	420.96548129302676	443.1609422025014	448.24669503618435	343.9700496019106	361.98904171583484	497.54543155420237	494.18446185359653	449.9953476975741	431.73117838842035	444.0057231003483	432.08485371558453
1140.0	1260.0	387.01940438047194	387.36033322886885	440.2362759703573	457.34329213198714	330.74658105457445	378.0361555503739	508.6883752158666	490.7945677763426	401.49635303935554	424.15654640654077	412.2319761379868	437.7158425498751	461.52243049059535	466.5062111814838	358.5485675291614	378.0719666571163	517.1990109390167	513.8018663187352	468.6983249258058	448.77490738731166	462.2466926498493	450.2827836940311
1260.0	1380.0	386.01332734681654	386.5352530791449	440.6670505673163	457.6501732578847	330.3644536685999	377.7047830798937	509.8042289220363	490.68304026269766	402.5591711152687	423.9775657061522	412.85067770227306	436.50860710462615	458.0997662702628	461.8400425988799	354.67349032681386	372.7586733852253	516.0872471783268	512.1961979340452	469.11762316886063	448.90156575023934	463.3818127461615	451.4108962330722
1380.0	1500.0	378.858853467871	379.0128771359461	433.49842259868956	450.20417013861857	323.9812140134991	370.68593240460484	501.0656049835243	481.573364531945	396.6134689160335	417.16004165978245	406.3641615976692	427.7819055400965	445.43318195441594	448.78429552188857	344.130920700922	360.41168367177323	505.73589318910183	501.8319774656969	461.4107817735	441.4728933570797	458.42218350149597	444.28617143387305
1500.0	1800.0	379.6634890544743	379.0979905984912	434.93417138711465	451.5927046038803	324.67551721734134	371.689272395711	502.5247605417756	482.2930998929502	398.35621316896203	419.1609253794919	407.1397968661055	428.7240331419214	445.81168079336567	449.4865598402276	344.60898551078157	361.17085678063813	506.85831359380046	502.80815871985845	463.7395971854812	442.90161126802934	462.1463954505054	446.5857398221531
1800.0	2100.0	371.61005971929984	371.752496145125	426.9652949245351	444.9356661486938	318.4009091739661	364.61992236369724	495.69250102740125	474.28019917235366	392.1713666508684	411.5633256603598	400.48368183304734	420.0416741996615	434.9915753675025	437.82884475467733	335.62853545491373	351.11452317142147	496.6449307480676	492.45328583483536	458.3279286061623	434.5655887777677	455.5939752383213	439.4029541966272
2100.0	2400.0	344.97708351218637	344.8419999240758	397.86581839047693	415.61139009639464	295.3241783413632	338.52632037820933	463.4888446659172	441.5678383466991	366.15170676946246	383.5435951825068	373.50732427675865	389.10826362419647	399.29023620488863	401.0351694773729	307.03648453770955	319.8013991682104	460.12708908150904	455.9281161270223	429.56176913382495	404.6939248225143	427.43913929509927	410.5718833441371
2400.0	2700.0	312.84520548274304	313.5749452010578	361.41611347648217	380.637555674109	267.26801583486633	306.7055041347114	424.8434535866085	403.10564683758184	333.16482067591164	348.66992931996566	340.93076603067544	351.9355161608722	358.7546671858083	360.08219398384017	275.35833626833625	286.1532275562392	416.2323589325009	412.2390552152333	395.41406016296236	367.44072867024244	390.9037436387003	374.34554438574924
2700.0	3000.0	304.71244520431253	303.30539438661685	351.0994106191617	369.0397639547457	260.3987739991065	298.6639285769008	412.1970282032861	390.63020022169655	323.0628806776626	339.1925236687446	329.03768391098754	343.3982979510762	353.42070442354566	356.041347802592	272.65883953078355	285.2340977596668	406.03561287535723	402.4335565203259	385.8657800464655	357.18641610608745	379.2192160138819	363.48061085957966
3000.0	3300.0	295.76657545450144	296.1115342000546	340.64630342559457	361.44954481414516	252.90426086224159	289.8939631323886	404.61344319302844	382.5255720534694	313.43166933478904	328.56397803825223	320.20747861915675	333.39330150528144	343.5910695484034	345.59953047464757	264.8138218803401	276.7930523782017	394.24593157303894	390.7330358444793	380.01284588092926	346.52582858150384	366.72550590246766	352.6080388029902
3300.0	3600.0	283.710033041653	283.29830871197953	326.4845043302935	347.4496592199982	242.262046841658	277.7969115749078	389.30085011018195	367.0405810130384	300.2789522170828	315.1411435128951	306.5260933094786	319.48022102839616	329.04731202579865	331.28900247533005	253.7134919817474	265.18417096162756	377.7704833616266	374.4348642197535	367.21025537746834	332.16600652439007	351.9261769153896	337.9448692855435
