start[seconds]	end[kBq/cc]	NAC.LModel	NAC.RModel	Striatum.LModel	Striatum.RModel	ACC.LModel	ACC.RModel	mPFC.LModel	mPFC.RModel	MCortex.LModel	MCortex.RModel	oFC.LModel	oFC.RModel	Midbrain.LModel	Midbrain.RModel	VTA.LModel	VTA.RModel	Thal.LModel	Thal.RModel	DMS.RModel	DMS.LModel	VLS.RModel	VLS.LModel	
0.0	10.0	131.9885296173067	74.02520877565075	107.28109115061791	105.37905000947265	86.2538848718454	94.917734118749	82.01982274051781	136.95377373136222	124.26427833533972	128.27102811768395	117.77939237693374	78.92637613596258	148.9939316196253	171.42578892612326	124.86960511697575	148.77790688336322	109.61501448639835	160.66745528384	110.13802000134933	141.7924898757465	83.07535007089248	78.8848932186697
10.0	20.0	211.8535592327957	194.35815336289193	238.37050563163058	233.66372352391312	222.52441455457134	220.5339832836239	244.70634844668072	225.6752632642408	192.2350060029655	206.0046460309426	225.70554970952642	205.67397947051376	296.42707220605786	304.540071159608	236.2155489373252	249.84704424788794	282.94194840400297	309.13757930886055	248.00461077770854	255.24136537227247	227.2414670602945	231.47635634620244
20.0	30.0	253.88869021835154	234.72505010413616	287.8420475622365	281.67131582556016	270.8866827605724	266.7544185169222	304.6228003089279	271.2487932196107	230.66089275113364	246.28480420999878	269.82996154566456	249.7265143300011	359.6676728801083	365.3629619100214	282.4513080040625	297.4396495501268	347.9084597026611	374.9903202809792	300.0338266631429	308.4929650520424	279.2092693725053	286.86361947963746
30.0	40.0	286.76624410667284	264.85682549125755	324.979211779033	317.71276909336177	306.0233542351478	301.1243715432783	345.1567405480203	307.22666571368785	261.54941696772534	278.64792153365295	303.75943341087	281.8856932018883	404.61960245540274	411.2240562315838	317.1605101024012	333.2582787061887	393.22894295265445	422.8406133045625	338.5867016112682	348.51873985199785	315.84084421763754	325.2416508547669
40.0	50.0	307.05834178362267	286.8805264115062	350.9733894563033	342.80572604595966	331.5664743015785	325.50590694549015	375.4874280292913	329.7762456112555	279.79407244187684	297.8220867987945	325.96477620014286	305.31320704147885	433.865847841741	439.5444838356942	339.2186479652675	354.13778640698655	425.90547197475126	454.07258281592476	365.5396670845991	374.3625936220333	342.8544719443843	354.08471757713625
50.0	60.0	321.77359138069613	300.219158533069	367.60391062949134	358.71534902222425	347.22156851869704	340.86264140395053	393.8099190804721	346.3583911445788	293.74021660400376	312.094011504137	340.4678008465952	319.53421547112004	452.10966181984463	457.97263388790947	353.1929414022598	367.51793221476566	445.8775640193698	474.2289048434048	382.5807783686082	392.0423990968264	359.3429830306557	371.75346770127095
60.0	80.0	337.51467318688714	314.6826975158233	385.7105538443355	375.87555982494854	364.00385460475366	357.5815428438176	413.2565715145753	364.3976242698549	308.4697674884965	327.13929221890476	355.7539926729606	334.82225993495786	470.34326998144724	476.14329610877553	367.20151396080416	379.85547262015416	466.7760564801088	494.95301631957176	400.9129692420574	410.91255201223197	377.0392236308765	390.89468387558907
80.0	100.0	351.9550406711959	327.13384850655274	401.52097045101596	390.6108755471732	378.46474212710154	372.0473960626969	429.9733420720324	381.5394757076718	322.4507298594693	341.027820489936	368.5382392287505	347.91302217681283	484.42169307217597	490.38205939829203	377.9343618261742	388.3756992382108	484.3062062225062	512.1130660836523	416.6095167646505	427.73257141041125	392.3739141595635	407.8248857205967
100.0	120.0	363.1212908802772	336.50881307401664	413.7196475511962	401.8168429443349	389.27477366814514	383.17061362844834	442.3251120615218	394.97117404674833	332.8934985512121	351.3794675393998	378.03503409121146	357.6840875154766	493.87403657883095	499.72392074136314	385.2134822067256	393.08955005413253	497.0712545310835	524.2742260005016	428.5035995632859	440.5225210759353	403.86430644406346	420.71211750184807
120.0	140.0	370.5262419031645	342.3807368147709	421.5747901068579	408.77344345249986	396.06885504431347	390.266557022226	450.14553778467666	404.32211142271916	339.8448374942914	358.032508830528	383.4768514360798	363.74141376651266	497.94535411711666	503.67968603479056	388.301222730636	393.589657609153	504.5895041662259	530.8917064352052	435.8759675279453	448.72726059039445	411.20426386383105	429.3141932844566
140.0	160.0	377.7059532239441	347.5446731920014	428.7215975757579	415.0648001673495	402.0016416517088	396.65895723262975	456.7797232446462	413.51033503441863	346.91057480174203	364.7105331389012	388.5036534197906	369.02862715709256	501.5199689038209	507.4106869788448	391.0856204427176	394.1638370242722	511.02553172521135	536.8750994031528	442.50366725380286	456.44155056807705	417.57517242495754	436.81161751816745
160.0	180.0	384.8842516643898	353.1153457948813	436.29571014262353	421.79300177928326	408.397111663092	403.4892699807507	463.99587170516054	422.51426857005504	353.5205805790703	371.10300084106143	393.8797602898419	374.75257890359586	505.6955629104441	511.4594004989018	394.3247610924243	395.1061809003776	518.134723935104	543.2812786926298	449.60734811007313	464.34422941669243	424.438875459473	444.81826533121716
180.0	240.0	391.7048434575009	357.85831899915416	443.3794996987554	427.42085840880975	413.85087882592853	409.7168091446634	470.2724834168489	432.04399183652464	359.09493455953293	376.1051287696151	397.1047994842881	379.4341924686208	504.46889186274643	509.5263603187893	393.26623047121086	389.3424160888264	523.0069758609295	545.8072773111389	455.5012833065052	471.28859339701324	430.6078757344292	453.00835979123354
240.0	300.0	399.8230370808685	362.57801378896977	451.0486435219895	433.14546164912025	419.15644049076207	416.32266037998886	476.1072493817428	443.9343549230831	366.0527846692467	382.06219745620575	399.89065646794063	383.903266090422	500.6237787559154	505.12957609829846	390.3149792186001	380.67542707991714	526.7561499253618	546.8062326029327	461.3905051800759	478.91643695701697	436.7218174528853	461.7301079436928
300.0	360.0	410.009393368099	369.4044938431171	461.1237199372755	441.4199994597498	426.93167469825363	425.20022878417114	484.7638874619081	457.8202501865744	375.1808672785328	390.41973930393397	405.48956226393386	390.68869051986655	501.83400965080597	506.18131963255087	391.2739977417989	377.5300366540688	534.1051718636704	552.2639170409562	470.0307652085097	489.2816030674412	445.31458948768335	472.75001018720815
360.0	420.0	420.1021878971374	376.44907478480144	471.31148553442125	449.9604244839371	434.9989166416372	434.22237622423097	493.80711627065654	471.3271502913825	384.1793405488119	398.81415016244705	411.5885084512927	397.7700193357772	504.69094662617806	508.97132190523183	393.4790942698057	376.5653190041055	542.1813828845734	558.7987822318255	478.9863554941409	499.78491224721876	454.16282150511404	483.8396991023784
420.0	480.0	432.7738218249512	385.8033092773595	484.2202499008876	461.30207560985696	445.7197751633074	445.7912153983296	505.7794619606159	487.51726953220685	395.9853736221281	410.15021013402253	420.69278704166135	407.3423322666199	512.2825024806889	516.9148917025449	399.4234551110917	380.426082680503	553.8807756459489	569.8063844601265	490.9282601550571	513.4373923171788	465.67354998457733	497.46317129045997
480.0	540.0	447.4566236790458	397.37376143838867	499.6908634769352	475.24202213797935	459.0375658416112	459.77643271984533	520.8031931938704	505.695863582002	409.56618292913936	423.491933599216	432.36438414558853	419.3189160829844	523.8948235045402	528.8877601584657	408.4466161370392	387.85424825718746	569.1554897403489	584.6562707691714	505.67260088271837	529.7676935085481	479.8663874749302	513.7633277866972
540.0	660.0	464.341988992288	410.8054966051114	517.7825470463138	491.30467058129767	474.47745634752283	476.1069071056477	538.2993861655466	526.8486105795205	424.37680076154993	438.0642700595453	445.31779355686274	433.1503249538906	535.8770154528503	540.8432520104075	417.737956279979	394.5931834406904	586.4817722003577	600.6707966833328	522.643421818432	548.433356691738	496.44486189864284	533.1906555775541
660.0	780.0	475.90224893590005	419.3416060344638	530.0834720210705	501.4553289191406	484.2237781087807	487.0166697169777	549.3393847796025	542.4141530692705	433.2821107970959	446.5589654262056	452.21710377791703	441.6905175077018	539.1582974596223	543.5685110132554	420.2625264610957	393.80806854214086	596.0916671419759	607.8136311785006	533.2790572072461	560.4840507723057	507.23319677114756	547.023929933613
780.0	900.0	489.65769422364315	429.86890908407094	544.5447170793168	514.0862522103025	496.2585299491346	500.0004861700534	562.8147708151897	559.9570101343181	445.14363740131046	458.1615392716406	462.2415938508713	452.4431323648601	548.0949840958795	552.6730291465914	427.2864073232348	399.28098802873393	609.1946082181331	619.9196304866929	546.568201290911	575.3445245755314	520.1923356510642	562.5376797258536
900.0	1020.0	504.8769307462857	442.37452161434993	561.1503137703555	529.0166003321889	510.6454250796898	515.0507565648222	579.1195757764426	578.6691115236416	458.2722759256517	471.32875530216563	474.64806302205415	465.3888407735427	561.0650217991144	565.7204658267483	437.3629588804734	408.13805244377716	625.7628428509712	635.760001097415	562.3654760556109	592.4256544411116	535.5564295049397	580.2973263924105
1020.0	1140.0	508.455387425029	445.0458999000204	565.3631216712863	532.0265294737122	513.6492759986997	518.714992685391	582.6066403306306	584.05618317697	459.6419608798061	472.5951331833322	475.7766435100508	467.91049850868853	559.4772452605896	563.3494630334895	436.0988344224479	404.83469309902705	627.9440265165929	635.8628831852632	565.4708422942357	595.8413876478265	539.1133610174066	585.6386841878657
1140.0	1260.0	504.06890290446756	440.69506371433596	560.6882617998925	526.6367969146595	508.5094106741498	514.2194270587895	576.776771271857	580.2589332380124	453.6747277060767	466.33738280745933	469.35824467882577	463.0197894409301	548.7648526345507	551.7762131914013	427.78945042955564	394.88546325088083	620.029421082498	625.6998596026875	559.6239627190276	589.8412908032551	534.1157498086505	581.7264803022127
1260.0	1380.0	497.99898564122645	434.8934269728859	554.0382227474224	519.589867731354	501.7262290829767	507.94011519478676	569.0618978639756	574.2977347904739	446.69378363981184	459.0503164053087	461.8492014192517	456.67236651887634	537.6711409470423	540.1447209284935	419.1685523758523	385.52834595794144	610.4783201585502	614.5156177758608	552.0406224283988	582.0275133913833	527.3032501196909	575.5412943541647
1380.0	1500.0	495.9006570912844	432.582052222369	551.5465049627186	516.8140310494964	498.99985866214985	505.539928782439	565.8932731529031	572.5409186579359	444.2818408702702	456.4376538540945	458.8473091686908	454.10471489020426	533.3331125968895	535.8588154445921	415.8207019138756	382.4570313909535	606.4885251240759	610.0443171523809	549.0300030497406	579.0891756956333	524.5853232609526	573.2630035080759
1500.0	1800.0	498.11268845125517	434.2052484619646	553.90852655591	518.731868503031	500.8394028830688	507.6274783111234	567.9565526660358	575.6224843200304	446.0367044337692	458.1425898164825	460.284887546028	455.7249529150931	535.041329553398	537.8241934687152	417.14690375970076	384.36896310650724	608.3743900645861	611.8882026318583	551.0339003857607	581.3557342305984	526.6222091370043	576.0037106312731
1800.0	2100.0	490.2355365520413	427.2274010353039	545.5107498459689	510.2273309600532	492.7281941945436	499.81131045329676	558.8218435215549	567.2921662221027	437.5544937052465	449.4397509306583	451.745840108042	448.21109955721977	523.6189488646964	525.8575759077327	408.2280186470791	375.0862920973887	597.5876502750126	599.7300735090754	541.9374092865941	571.7143171517457	518.3666676305795	568.0279147804716
2100.0	2400.0	464.5405008411826	404.6253741185698	517.3988410189684	483.0390222313608	466.56710435438407	473.87883887256527	529.1827071678875	538.5173358414454	412.5091907567379	423.7388210409792	426.2051522486334	424.2204741993174	491.31894867578706	492.60789161057585	383.0633421295272	349.9402288476615	564.4421256832699	564.4356504221446	512.9612266712901	541.1081690668059	491.2140632141056	539.6871556312447
2400.0	2700.0	444.1188673364932	386.60390562470826	494.58618115417306	461.50027925126614	445.73403239698297	452.92670599347844	505.483474999325	515.1727973924197	394.1298308143104	404.80073701269555	406.976861316619	405.24329614869595	468.9800093876744	470.3907097290117	365.68957584363005	334.5027827130803	538.8777930575075	538.7876653937742	490.0462893946102	517.0452212422337	469.35295167663037	516.0794596128219
2700.0	3000.0	431.1307330932163	375.3035832960328	480.08141890638535	448.05296635687887	432.7348141391378	439.6505809939661	490.75963739855945	500.063496804328	382.9319507987383	393.2950294255144	395.3478242260479	393.4395985446783	456.31821773691604	457.9385856062619	355.7777756668927	326.11354529537243	523.4090536123739	523.7615388898224	475.7879164830251	502.0143360273819	455.62989518710583	500.8947734788291
3000.0	3300.0	420.3490952207971	365.85844937257957	467.91044915471457	436.8242597486963	421.8506512559218	428.5226607025529	478.3810742381358	487.46662442363044	373.8090098699358	383.8909712921402	385.7315984418987	383.5778200184546	445.80966716537915	447.6397573832548	347.5953000523568	319.16014756245926	510.47209715430023	511.3074279537161	463.8737773772294	489.50897607656447	444.10417419982616	488.0345354954366
3300.0	3600.0	413.064749478755	359.55740862295994	459.72824786481533	429.34552940352694	414.6145158933984	421.05634931196767	470.1867615882606	478.87203422486255	367.72226428613783	377.6389801059297	379.4043257482478	377.02867486925294	439.0634634724474	441.006619772114	342.31351103785425	314.65953012891697	502.0114109501247	503.22953397943746	455.9560540001407	481.15861736334614	436.4231410526468	479.35412073360607
