start[seconds]	end[kBq/cc]	NAC.LModel	NAC.RModel	Striatum.LModel	Striatum.RModel	ACC.LModel	ACC.RModel	mPFC.LModel	mPFC.RModel	MCortex.LModel	MCortex.RModel	oFC.LModel	oFC.RModel	Midbrain.LModel	Midbrain.RModel	VTA.LModel	VTA.RModel	Thal.LModel	Thal.RModel	DMS.RModel	DMS.LModel	VLS.RModel	VLS.LModel	
0.0	10.0	6.604166615281118	50.71047581572843	93.12805680597003	70.75651943932039	89.99652152982696	64.82640435118815	125.68732319111746	59.436208655914186	71.10168730625256	112.54205506077543	73.22199348633086	113.76405659592065	151.5412970063883	133.88492307082927	53.056450443548094	101.04998380392307	63.88384634774076	73.6987348848337	63.771228305232675	35.812230389862	121.94102191586458	119.07696127089517
10.0	20.0	118.17106218147023	149.99396483277502	213.79968618294401	196.5039583057597	141.80282055405175	165.0760353798052	231.67417177267737	198.11067653987533	167.64045027529346	199.5960713424312	170.64892425826812	189.79683541010303	272.5501504476989	249.5759269225265	199.23205373586842	224.01347320452055	217.0751682559735	241.63655149643552	202.52095605186074	190.711770951049	221.97367820610353	215.18292885156634
20.0	30.0	163.09677653341225	192.7054815393003	274.9171342383689	254.8381915488134	170.63905591695124	210.14011877364746	285.68506535048556	261.77637270836124	212.62365515104187	246.07700898687315	218.31836208270514	232.9438306181416	336.979104542639	321.600036287397	265.71085480417554	285.35688675043497	288.3673972447051	321.3496548637645	266.1157866768931	265.50264822395326	272.9004020590887	265.0168578579181
30.0	40.0	193.11032137943872	226.4404902015212	321.79462902054973	298.96714586077917	197.33980616075945	245.56174063588935	332.2279338264149	308.21856577452724	248.6517905318929	285.11721688974256	255.67000118980306	270.4450829254102	391.70508016600354	378.0122526492182	311.67277574152786	332.0536615796385	339.6779856663209	377.831831924002	312.6893559334657	314.1058261760305	316.82940335568065	308.4963595873586
40.0	50.0	218.56539907390365	250.7976204116917	353.76016773520524	330.43346639425806	212.02532421611167	269.64020176623586	361.0341718115222	342.8169512198985	272.8515477424964	309.2916610690838	280.8781415561427	292.6704064562813	424.40602748989085	413.4362657818464	346.1754490130347	362.6715524429663	378.0826581656123	420.0580638481523	346.88852465728485	352.43853954487327	343.55074477694126	335.394309497256
50.0	60.0	234.46388138292224	267.90976164105643	376.55186287147535	352.0793019443448	224.8026058464364	286.3076671490969	383.9770104909864	366.2314313662431	290.1517916734538	328.20887241540265	299.09366831310564	311.52838395997264	450.7622508357597	442.94909582324266	368.06778090744984	383.72721603486855	403.84841229015996	447.8857009803385	369.8304640240387	376.92690178004136	364.79358717348975	357.2329500401132
60.0	80.0	254.8304368142763	289.1701352822613	403.7683686784099	378.1458877995689	239.54446607131973	306.03032040703187	411.28983088965265	394.8448090687488	310.77400675018436	350.3788703182011	320.95517915678	333.37630482890626	480.9227754777001	475.9782083822983	393.89593716260396	407.847851743563	435.1618598448343	481.2328753303804	397.51638601708714	406.47228633888403	389.78400816442587	383.4454185159441
80.0	100.0	274.9268182499948	309.5527004051342	428.6841482394116	402.2081573570874	252.6371240106189	323.4800486666709	436.4814857823824	421.93282279293567	329.4596968137968	370.21796465077745	341.0975339566731	352.97014021715273	506.8729659978571	504.44697081255015	416.7396856821466	428.01358628949475	464.64569576636916	511.9076340700262	423.1205201492815	434.2345918497558	412.3320363635921	408.10603928065615
100.0	120.0	289.14660841718984	323.88607345155634	445.03764763268885	418.02464536518363	261.3475684535892	334.3378214775179	453.58739735752283	440.245634857454	341.6242831362812	383.17642923402565	354.55608065729587	365.94453841936536	522.7356261136915	522.0389830407775	430.3135059067653	439.2975195893241	484.314419455189	531.5347378823236	439.81236709304983	452.31146926869445	427.17495020742376	425.3964339345581
120.0	140.0	299.440063434632	333.62363076142174	454.87101153470644	427.75359444702787	266.0824529288185	340.18787776747774	464.05241132496286	452.2677859721577	348.72822061464575	390.42576525937653	362.80861024460233	373.1497939386295	530.2703078915188	530.1360633262032	437.50929493921836	443.92362818087514	497.03594735842427	543.4292105488652	450.11688347266994	463.8957674804115	435.6759754416649	436.5310438177954
140.0	160.0	306.15283593355593	339.6389020398986	459.61826529482136	432.58040736804554	268.3278259020115	342.14970715059053	469.90788540359296	459.04210888999796	351.93046509731784	393.75953910884533	367.0328957787465	376.9484596054235	532.683300901568	533.4929843244728	439.3772095022097	443.51811490873115	503.93369039476835	548.8720192349418	455.15310606839586	469.7810373723493	439.83330920648854	443.41334096778877
160.0	180.0	313.24928985707896	346.78109595801965	466.1768112126566	438.864480658006	272.3374441832077	345.59954748935854	478.1050530961499	467.01847673061087	356.64885036902007	399.23111153905336	372.77666738873194	383.11615205300836	538.4505384350985	540.8551325601885	442.5194076390382	445.32158340979606	512.088778483776	555.7581492791757	461.51277883442896	476.45316943601574	446.32172150077827	452.4785194171898
180.0	240.0	326.2615647620357	358.5943135850022	475.93328462577557	448.65295178154986	276.9783175087003	350.1088182263398	489.77207609612054	480.3656657984168	363.35710650355634	406.1846780967498	381.3502573740754	390.57345555882046	544.0359667296522	547.2859250263982	447.1168828330463	446.22206338010244	525.7317477331592	566.8879393003956	471.7027723794858	488.1142796844137	454.8615308760391	465.9708060152902
240.0	300.0	340.38504831256915	370.72968243357553	483.28201783923004	456.3352993961426	280.3136488323549	351.8015241553735	499.94519933987607	492.6174329490408	368.040591930593	410.84218348587075	388.4572837060198	396.08683656435056	544.5947199488322	548.6661930200095	447.203274929884	441.60318529329635	537.6362655547822	574.467746438869	479.49560665377624	497.48529894130473	461.0447241738727	479.2277495944658
300.0	360.0	352.2644289947107	380.7949035869507	488.88119781553587	462.1904948011673	282.8782122943905	352.6635904557898	508.2452880591883	502.4184479561505	371.46431558421676	414.4029627802494	393.9790476479106	400.45079310524574	544.714593375599	549.5890143352902	446.46104680538207	437.2631207976382	547.0092137991263	579.9521879993633	485.3538377396985	504.54375211444915	465.88638154450393	490.34385759067004
360.0	420.0	364.4709500921723	391.5939658587739	496.44531876666196	469.763706487869	286.91892024226024	355.53744214054734	518.4276413536237	513.5271909037219	376.5439443830336	420.02869874592477	400.94304360322406	406.9462286973097	548.8826154375315	555.1664213240366	448.5061017778904	436.6673107811133	557.9672279082292	587.812008730398	493.0193253008146	513.2153466404916	472.9222731182519	502.8536095407909
420.0	480.0	379.55843822558154	405.8705144119029	509.6325687558866	482.53758772287296	294.41147212966416	363.1027997918296	534.0985871326668	529.6992138809514	386.060162779973	430.70863254052557	412.27052602265115	418.34898844966233	560.9543336269645	569.217896339812	456.83662059598106	443.12590090068215	574.6414562241357	602.5136890984646	506.18625891692346	527.4062772945668	485.4901681254424	520.1653695704223
480.0	540.0	394.8132936333529	420.2706246034051	523.4832846049095	495.96773902447273	301.96939855037294	371.3844622226747	549.9487792065459	546.4257403680268	396.0866456413184	441.7529119981014	423.99498079381834	429.71598078101334	573.6322806354715	583.1837023787358	466.52882646978105	451.0287847721863	592.0556813560911	618.3837851884758	520.1476527021716	542.5418782253937	498.4010819729313	537.4201885477772
540.0	660.0	413.7611083000584	437.6956106358057	539.1591441984682	511.27045431883715	310.4737548194523	380.3814460363811	568.2136755965407	566.0505053804789	407.36130722670197	454.0654957979148	437.4638617473505	442.3629390979809	586.8988258823603	597.4566822508552	476.7724005916922	458.9293168955504	612.2590018839379	636.1365193513755	536.0004808931031	559.8728778777574	512.8851962587199	557.860789011742
660.0	780.0	434.89579514644385	456.75390472727565	555.6438648502568	527.4110345600726	319.29895839104285	389.6198586771724	587.5802605545557	587.1263636982355	419.13824630466127	466.87465344419655	451.70808417778625	455.3428839491772	600.1557584708869	611.2113143676606	487.2120000855366	466.8552024391499	633.8209610466668	654.7173873672527	552.6965340398482	578.2121196112092	528.0001942530893	579.9100347134861
780.0	900.0	451.90859214677016	471.70519957791	567.9160889634433	539.4904036944677	325.7856394283327	396.3330285385063	602.104350002018	603.2556569880447	427.86570191221966	476.26700971473565	462.4173718464909	464.6850867977705	609.3243610137373	620.2683579568892	494.7140222235431	472.4168574412154	650.1826192307351	668.4655524985419	565.168329663599	592.0071155645285	539.1104105771911	596.8239405138197
900.0	1020.0	460.5955687191385	477.67127064080466	569.0281133199717	541.0550176901024	325.5040123007917	395.09257491541956	604.5175763744109	607.8412073667911	428.11731666872174	475.95240910311503	464.04825994871203	463.95232522051754	605.0187979017568	614.1551320430844	492.39260719994377	468.1874064506715	654.0696598654265	669.2236267833756	566.6682659794179	594.487042378237	539.2222924134106	601.8760943153255
1020.0	1140.0	458.8638705465691	472.69158026274033	556.6007276984755	529.7492440519637	317.5252452866707	384.2384183144397	592.7398943213552	598.1687261549991	418.14412729133664	464.3038584796094	454.7192861270991	451.9765445380625	585.6281832898587	592.1456747721423	477.85420881789304	452.2044354042192	642.498957560858	653.8487995978544	554.6297669543259	582.7326120510595	526.5073364491793	593.0291181166715
1140.0	1260.0	454.6981970437666	465.8871661521215	543.5725179009195	517.6800847791958	309.6875916530396	373.6924091406051	580.1234650752191	586.7938614704584	407.9384822051243	452.71075200523154	444.70753586835093	440.41299189866055	568.0970999215901	573.3417973122112	463.9028116671982	437.795190100541	629.3534526965233	637.815420365586	541.7963418201932	569.7783537157624	513.7009359397316	582.6396333624042
1260.0	1380.0	448.7880546778085	457.63491441484314	529.9769786154139	505.0169125463462	301.4472030486984	363.16878529955534	566.4398273243465	574.2548302597246	397.3799788566375	440.7003933620583	434.0346073944855	428.39792333829206	550.8682727012333	555.0597132937934	450.38311032974804	424.11467961746547	615.1966796347862	621.4513903826455	528.4324659891406	556.2231213869509	500.3375062633381	570.6655613574691
1380.0	1500.0	441.1853405700121	448.11234867110795	515.7920391466956	491.68834649912105	293.1602201393551	352.59919151729156	552.0347516417471	560.483909358508	386.50350107596176	428.5072631747893	422.7881474323485	416.39742967866994	534.1908122994864	537.8679111016835	436.84572609043215	410.851118547003	599.8611279582533	604.3900265171189	514.3669674418603	541.7218755914312	486.6835329724774	557.560514126728
1500.0	1800.0	429.8775357659595	434.73412698913035	497.6681950825644	474.5374191024633	282.72786915520186	339.70859275267406	533.2390661479087	542.0513442568192	372.75048310373194	413.2186000357938	408.1910724698532	401.55794308825716	514.730515752762	518.6219446316153	420.7038039970059	395.65696381707124	579.6443947482546	582.8660768805547	496.3400074904926	522.9545812192857	469.4521076757117	539.7713514378082
1800.0	2100.0	416.8241469019623	420.1113568068228	479.5313096892606	457.2589931403233	272.507509054987	327.37710678120044	514.0722440888372	522.7557347049121	359.1525758144214	398.22079399236577	393.39542402374207	387.1944500389508	496.7662306333855	501.4131266788884	405.5124682065386	381.8471252413605	558.7704063934603	561.5301727167072	478.23283667930616	503.90658992174457	452.4304730825156	520.944338264042
2100.0	2400.0	403.62066190877374	405.9006502756681	462.4922505487622	441.0519551585465	262.7506770674382	315.7095316107315	495.8545355501568	504.5113575871755	346.3661206178383	383.986439853199	379.46274042366196	373.3312530854635	478.99963457440646	483.4166868608018	391.11542871537677	368.2916723391534	539.143541222199	541.5898482961974	461.28338838260646	486.12987892484995	436.27255619183455	502.8155357162596
2400.0	2700.0	379.7689310074256	380.32547104004584	430.6031938231869	410.86687397359697	244.14643310361794	292.99105725125304	462.1407060359612	471.29313759615593	322.2010999070739	356.89305250040024	353.6122881946029	346.5104822937222	443.01830223492	445.6802277548229	362.6037690578132	340.42583811387567	503.16225984996197	503.99436004283245	429.64889364436317	453.19255901515197	405.68077853419953	469.86952433313456
2700.0	3000.0	355.8731694661839	355.6011512746338	401.4635400967747	383.110122108317	227.68485816294418	272.9854112213097	431.1404004052375	439.88295039399196	300.36975100342545	332.70609206401065	329.828066986269	323.02298400536904	412.71698061440935	415.3478021318069	337.6670193304848	317.0179222402957	469.40619644406746	469.68503979548854	400.56475401470476	422.5625104290487	378.2162743622897	438.8399334740775
3000.0	3300.0	335.8830684514993	335.3926123284176	378.66512245260907	361.33479226633045	214.70296382442672	257.53975790651316	406.61873722486155	414.86102967579575	283.2924273057467	313.82320837433093	311.041172891069	304.7281285162895	389.64459394227845	392.32864085234274	318.69020355118215	299.3404888678873	442.7256178399337	443.0897388664807	377.8166090498084	398.56140260603377	356.75445770212673	413.864992294989
3300.0	3600.0	321.93941817812714	322.0389091432022	365.0381182071957	348.16789091090766	207.4054684754163	248.94418124780597	391.778494054373	398.9474613667341	273.3031585452807	303.02493053433534	299.6650715745753	294.6618369396719	377.92110673011604	381.80815673899104	308.26524963129833	290.3856139998423	425.99558145092703	427.24035846598116	364.0692833884965	383.7561742010539	344.34622689801256	398.07114698140435
