start[seconds]	end[kBq/cc]	NAC.LModel	NAC.RModel	Striatum.LModel	Striatum.RModel	ACC.LModel	ACC.RModel	mPFC.LModel	mPFC.RModel	MCortex.LModel	MCortex.RModel	oFC.LModel	oFC.RModel	Midbrain.LModel	Midbrain.RModel	VTA.LModel	VTA.RModel	Thal.LModel	Thal.RModel	DMS.RModel	DMS.LModel	VLS.RModel	VLS.LModel	
0.0	10.0	6.6772753717882	5.355659173664957	9.536319328686359	2.3695334929786744	0.0	0.0	86.85305995246985	0.0	4.700377868017295	0.0	4.425134917375939	0.0	37.93235649262199	0.9260264942934593	4.717661295530265	0.7325569089831503	3.2165976532002674	2.4803727054087066	92.80238284985765	105.13699147704287	87.35254260447682	82.25867785363798
10.0	20.0	159.97995933031171	152.9578512167143	159.90123310964447	146.98506947623952	101.61833646037434	63.22600676748651	234.35217189976768	112.00938397755758	129.1351106155993	93.39766321085492	151.31667272170898	96.5706761875403	240.88881714357737	170.78893999146862	186.19326878435186	163.60712539690255	182.12437532764753	176.5853596578848	231.24643280948806	237.4679626735295	221.47525889106316	221.38836110932374
20.0	30.0	224.72647866315228	216.86993571502427	218.90516859554378	218.2666014140118	184.51600260331983	173.0032748835283	294.19498036478944	234.50375178239315	170.39162322654113	171.89777762082525	217.24090258276988	217.554678851037	325.36949902467376	294.7469623807536	284.7513787558618	287.4504609341105	284.89195895587966	281.7098232810981	289.34151657335445	298.2406888392239	277.74052813447184	279.36139004708764
30.0	40.0	261.4918541264173	252.86188945898178	254.54791271599885	256.4781551858495	226.35018951208613	214.7349721008884	333.75295332369996	290.68458187242175	197.05566701098442	210.68532300795752	252.62329970377593	270.70236665401137	375.9415181467083	352.0387063025869	335.30546887261914	344.49866618980275	336.3915944049978	333.7924436238237	329.96502781977466	339.9983314249984	317.1292795058766	319.74733957009124
40.0	50.0	291.6689460463532	282.6747046600248	283.8352024407844	287.5040271185544	257.35467295836787	245.23213103270825	363.3906120951824	328.9954035591443	219.63983596139715	239.26124979937168	281.4769050003935	306.4049293857019	415.87281279130394	395.66162539746955	375.8504706649258	387.08439848438667	377.2414728950611	375.05312849942504	361.1053037067427	371.91432782750996	347.4848539087686	351.209017545623
50.0	60.0	312.54547126754164	303.35611081504027	303.9192383299131	309.24702758684145	280.59930557234514	269.0623138557799	380.20405589657713	357.26617812571135	235.0234362755754	260.5983948166618	300.9209131035635	332.83435276164863	441.8472129003366	426.8906111123198	404.46261902902324	417.67237093265464	406.08620470680125	404.5377012608177	379.95589827646137	391.26054870429726	366.0444489402079	370.87519887973804
60.0	80.0	330.2515721782346	321.1064736519106	321.75568395719216	326.71988878089786	299.28492476326926	288.1425491720489	393.2691120684815	377.76767575578737	248.43729849274035	277.31915982147655	316.33733078734883	351.69320641904	462.9368691353072	450.7084586024902	427.8414017148882	440.4717325938691	428.9731839709166	428.0598362312442	397.03159201069104	409.36084441927943	383.07479301698174	389.2825696159697
80.0	100.0	347.7959217704561	338.91476765477887	340.1261083544866	343.5543338688076	316.36661813645526	305.16391824087	404.30174869540986	393.54236047568475	262.2991078891014	292.3987156144162	330.82680762274504	365.91179374911565	482.7564584763717	471.3490248129385	449.7955858810275	459.4950109800419	450.1414830831776	450.07184158155945	413.4819845501537	427.04338079830814	399.6511487438135	407.63978485741524
100.0	120.0	358.8397295504061	350.4330504018099	352.12178700300643	353.8735307975796	327.4557792177139	316.3137043389695	407.4722437633535	401.7873502484129	271.263295452365	301.9146744837472	338.96820778629984	373.1338567926925	493.2645900644124	483.24849387817875	463.20304281248184	469.59203810542624	462.7797401682427	463.5096399911507	421.9650251471819	436.5241245431474	408.46137542719146	418.158517019235
120.0	140.0	366.25139935637026	358.3310608229598	360.7920246711691	360.052063564298	333.8486300346028	322.5545540056702	408.2367836521538	404.1334696443078	277.6433302434567	307.08884113443736	343.45232796771245	374.6542849299204	499.28718216375086	488.97552977969855	471.0946851422609	473.3020468085616	469.8160359112701	471.1740731944654	427.826370934645	443.4098257172548	414.62793241459747	425.87884937336855
140.0	160.0	374.2815458398158	366.7996712974497	369.9847376912885	366.805544545898	340.52797486201257	328.98409511278726	410.4388507323609	407.2197736640248	284.47358383759394	312.6034001755277	348.62062625711036	376.9473493970665	506.4500938998251	495.6624885871758	479.60711912698844	477.71581016133473	477.6039143620571	479.44371666725044	434.6254697943941	451.19151473172565	421.5743437596088	434.31793535799443
160.0	180.0	382.24928171971203	375.20079709309647	378.9870541198698	373.5938872171851	347.44257394377036	335.8083183523974	412.833635427891	411.1965061522522	291.1571063678884	318.41473139336256	353.8399811444065	380.13803592430787	513.6398838654287	502.9232662311909	488.1181376755461	482.5254411699821	485.56359065297454	487.80002021556857	441.1861670199147	458.641183442534	428.1928503191644	442.3830205829629
180.0	240.0	390.90764519368304	384.8891401115387	389.5836589957497	380.09786347141414	355.21576496398643	343.8542031452256	410.11733355204535	413.03147883089457	298.737411557818	324.6012296109096	357.5361552319863	380.83464617156983	518.2854447861471	508.9385017355333	495.78322080416183	483.411481265547	492.564264310355	495.3455210515976	445.59062322561937	464.37798619595424	432.7272219249504	449.54959445580187
240.0	300.0	400.4544819890358	395.8379653795041	401.7917371404194	386.0980928547103	362.4951886053507	351.7429619197725	406.5455372464094	412.6054055178621	307.4188821729541	330.19407784530443	360.2620177229792	379.1953975215762	521.8872419164147	513.345243281879	501.814404281366	479.8583327416181	498.1864980526029	501.143267665074	450.4063671460811	470.92093481985125	437.3161551168686	457.54576024641597
300.0	360.0	413.02298373834816	409.45144597810486	416.1782101948811	395.25385296880233	372.64035089758846	362.6963969228427	410.7959307917783	419.08903652627214	317.7233650324886	338.88028315184476	366.7307417714562	384.11893275267624	531.506265980741	523.8425832623607	511.7149485025642	482.26933459761665	508.59530976558307	511.0547633605757	460.21234488054694	482.2200149583886	446.18887238598137	469.3472095838796
360.0	420.0	425.6919723876608	422.96519806574526	430.08387877263283	404.650666064803	383.0241199413638	374.09175443635746	417.7380097748715	428.0019193089309	327.62775386802355	348.0703479125245	373.91692693123986	391.384115803153	542.2320531859691	535.4701875617818	521.6805282435021	486.2148406976944	519.7095543005513	521.2480539266065	470.80873036305326	494.0570074994462	455.54813394549876	481.2751241676828
420.0	480.0	442.881699087943	440.6780364476462	447.95796495869	418.549645064597	397.2900369081912	389.25123227289146	432.4162364785082	443.25107614518873	340.62966265933443	361.0838010842921	385.96470549924817	404.57782708617566	560.0502269049575	553.4163313996966	537.2468125491536	496.95285634181744	536.8817837219183	537.1601624433193	487.6907733559383	512.179556887881	470.8203925983856	498.8693283033771
480.0	540.0	463.13076764786234	461.2668363961289	468.38276906437284	435.7392546455299	414.97283450836045	407.972235087881	451.2205536460889	463.81102264368604	355.4742248670206	377.35790357221055	401.32379733949693	422.73260142887233	582.3731268633643	576.2962645192434	557.0891985983677	513.1721087722303	558.6968235808602	557.6005627412569	507.8620549708536	533.5330429019341	489.2384049209337	519.5366388517402
540.0	660.0	486.5911473686027	485.26852059292645	491.8592020304981	454.74195703210603	435.34616661772316	430.19408960329116	471.90082392014534	487.4149097220823	372.1009826423299	396.1047156545723	418.10192308019333	443.14211968307546	606.0732046131525	600.7101544819437	577.7270444734245	528.9369374034239	582.5693667095256	579.3615403039294	529.6476334200183	556.7087654966026	508.7926156591868	542.1997165996173
660.0	780.0	511.96141768675443	511.1739515553652	516.7072174444332	474.3763545146651	457.0229995305503	454.41070841590005	494.77864066628706	513.1920958798781	389.1351749142283	416.1058772891213	435.6276292381791	464.96900881460056	629.9168473685863	624.7965056936506	597.5240257088216	543.4487516560401	607.0160190512847	600.9344219102635	552.1231757791961	580.6144943661293	528.6494803940232	565.7210990668757
780.0	900.0	526.752929427683	526.3936558491747	530.47891823896	483.91754157196414	469.3057105697047	469.5077847390071	507.2330113810886	528.4787545990113	397.3744345651397	427.4285919153925	444.0284894610063	477.00443075781743	639.6147086324942	634.6513607015953	604.124616413852	546.1112403390174	618.4392634165318	609.654689837897	562.1797562256359	591.4643293217208	536.7423206805465	576.886131518869
900.0	1020.0	538.6358979031496	538.3066482464355	540.777981114939	490.9112573153544	478.50125764280216	481.1770591816436	519.6297688565023	541.2746205346975	402.8783221042385	435.96328939226527	450.84797362228744	486.74575195719586	646.4865895258016	640.5103522123321	607.4341178071448	546.9287772292369	626.5339147045255	615.2454123435997	570.0948177661696	599.8586016067231	542.9810674910104	585.5773714980414
1020.0	1140.0	555.8112590410838	555.0576579057594	555.7764675108273	503.73694206875496	493.0145645551608	497.7313861531775	539.2174494763499	561.3670955735794	411.90866442824375	449.34718742700437	463.6788694560484	503.3201310445065	661.2427120256755	654.2093896571831	618.7035657419349	557.2419696670779	642.3361670859465	629.0494181120341	584.2534283500632	614.5092539579429	555.5975419091661	600.4448647854927
1140.0	1260.0	561.329807549171	560.3117801163521	559.2866978029396	505.47382683403214	497.4576093972985	504.44065391746045	544.3634930502523	568.4159408042167	411.90779697568655	453.1760770816871	465.8189467927089	507.77880455986485	659.6104489426183	652.3359329785699	615.9308443484443	553.5558116888982	643.546521522283	628.9798056381511	583.8176654944775	614.0754888272078	554.5076107697073	601.3407705530376
1260.0	1380.0	555.7139032443334	554.393797092604	551.7553151147462	496.48924356548173	491.21143365774736	500.30122845447374	538.8859488828055	562.7299998918769	403.43805987627434	447.0963308616604	458.20382228025653	500.4969065395988	643.7000735737735	635.5523565023536	599.4759507314183	536.4879887273545	630.6012117442834	615.1882640498369	571.5010111501764	601.2604092760237	542.1016252165239	590.2703913372201
1380.0	1500.0	555.0954034343912	553.0117354343912	548.8203795906236	493.05227756869004	489.55071872725966	500.1442469452405	541.4894684022528	563.8214031105782	398.6062486835435	445.2967335998369	456.4564240824872	499.7001099861274	636.2105270306175	626.7426958364706	590.8064630599265	528.5885168307253	625.0312136425882	609.2270769268761	566.2327831540482	595.5202714745924	536.665508840999	585.7875366448345
1500.0	1800.0	552.8664588069228	549.1718713262367	542.79964338731	487.25900975903926	486.48848451656556	498.9456209139492	544.0470299356616	564.6947639172889	389.5927860829669	441.6253322351016	453.6636695631001	497.57952880250906	622.8527553775123	611.6751097891122	577.6811838022909	517.507655902697	615.5122066806507	600.8402228367802	555.7679449068469	584.1358080051701	526.6610433225479	577.0595692161971
1800.0	2100.0	544.3846215444993	538.2331595775296	529.9171660622882	475.28935581266217	477.46125324921854	491.3617043805562	542.1722754109945	559.6244498505035	374.0142576402644	431.7126552597849	446.23521593646757	489.571860672999	598.9957348026165	586.7686752203806	556.5388033080851	498.98847723925513	596.7298380495766	586.0573775097592	536.2932448103763	563.2352158416948	508.67733555022903	560.1913668726933
2100.0	2400.0	524.5936160938365	516.1796090416829	507.190765711893	453.92716803989435	458.6672954316283	473.0955030365379	525.3261671805557	539.0682250032121	351.63244008546184	412.53893302630865	429.55785551905416	467.8418147763292	563.0872569425987	548.9138164564596	526.1907380078237	470.64720228758637	565.823061802655	561.4860432549549	505.63431739428415	530.8387975604531	480.25791162988753	531.9894545207061
2400.0	2700.0	496.73999891091034	486.14760983349055	477.3455747989019	426.29388715511277	432.7386165152829	446.9231286397168	502.4470055485769	511.57947273403687	324.91011653053283	387.048017844995	407.0781075905668	440.42224433802556	520.784332394557	505.97715087203693	490.14033986426966	437.10887845322094	527.2254674980795	530.5199820623952	469.0962801064494	492.20468030325844	446.14373078800674	496.83421179167533
2700.0	3000.0	487.1799289458113	474.28706150469407	466.6597848649826	417.80928666990377	423.7702328692532	436.4487766628053	499.2494692154263	503.2212942223387	313.97864651552976	377.2871695500598	402.36602726477247	432.0735574397138	506.31993093131507	491.4410594856214	481.29510531668456	430.07891407328634	513.9850505160532	525.9539048783341	456.06083480782746	478.0662431314532	434.90689972134766	484.65666432200055
3000.0	3300.0	480.7441020111383	466.25308292530707	460.53233585994906	412.4839261769276	417.93614320733684	429.0270465161442	494.0120740276612	495.38362054844185	307.2707854851348	370.40698786000564	399.3462625640342	424.2048064042238	496.2987033127037	481.2088339244062	477.7689563928429	425.64598226580006	505.0227437195038	525.9924738186313	446.67052037931285	468.1446067910357	427.022440676168	476.35104580549705
3300.0	3600.0	461.0441950228916	445.67308119368164	441.80694025137797	394.19858138544083	400.0650490271223	410.22381540240167	474.22587960553886	473.53183291797393	291.54941433434584	352.88733701220093	383.53224442332083	403.7863913484713	469.63850500590706	455.48524573303024	457.7288309931909	404.03327409404005	479.7297679471905	509.0322633149124	423.1002806230624	443.55720743556196	404.87781066317507	453.23372444668837
