start[seconds]	end[kBq/cc]	NAC.LModel	NAC.RModel	Striatum.LModel	Striatum.RModel	ACC.LModel	ACC.RModel	mPFC.LModel	mPFC.RModel	MCortex.LModel	MCortex.RModel	oFC.LModel	oFC.RModel	Midbrain.LModel	Midbrain.RModel	VTA.LModel	VTA.RModel	Thal.LModel	Thal.RModel	DMS.RModel	DMS.LModel	VLS.RModel	VLS.LModel	
0.0	10.0	0.04672672685120501	0.8157866987431331	0.005561598440060005	0.0125780440350165	4.113322690279785E-6	0.02093954207588259	0.013695158646745507	0.5701004269839591	9.779331539378324E-6	2.2402449783556048E-4	1.0250268421660949E-4	0.024460985065559167	0.14095076432241338	0.7802837667418792	0.012476974340897519	0.13487279955786033	0.17621809302209898	0.035215434980931985	0.022504538282746792	0.05379103035517312	0.0072201457917748235	0.013085392964491554
10.0	20.0	50.85809520797112	76.87897252725598	45.26450883435625	47.73478552915333	23.803195832378044	42.77428554116891	49.83214914702112	74.23687979205573	34.01633578794268	39.941592388153055	39.11200497679578	48.520037151852506	68.15095857283103	88.8838844593759	52.84091409325093	62.98397189274477	69.7550386346796	58.83489313109102	49.033691456471	52.56980670299957	46.542198716167675	49.133923911871875
20.0	30.0	133.75681460960095	153.86860219381913	137.75086000888936	141.0348790664396	98.464764872166	108.72642540019292	150.3928712539187	161.40016765247205	121.52456686388733	127.54506552684711	124.70511349288189	133.34865460899488	188.91143731466727	206.7461264517481	165.2550999249413	165.20667215464582	184.73273783861922	176.80927078981804	137.8024288828463	138.79722728905045	142.02494665579727	147.27926582012844
30.0	40.0	175.6871586085544	194.19892324524173	185.6074952372855	189.01781223300372	133.39796723168894	138.75379263442173	203.43297441593833	206.4275317301839	166.34902373127028	172.92115383109495	168.5182981765876	175.97434577133316	255.18070478483932	269.0801187135341	225.42494914459058	219.18391111626684	247.94481722769578	241.91865051258063	183.11306506718498	183.16678248335862	191.99331676255562	198.66513689363796
40.0	50.0	198.61917622384695	216.65914158921035	211.67870148174632	215.2565997756258	152.0833999599447	155.7583969316522	232.37334418175902	231.79101460945768	191.06219572333777	197.40060040617058	191.94853148795607	199.30351056716088	290.10578477256837	302.6739169712823	256.75838022097315	247.6698095966877	281.65534956910705	276.86319895955637	207.96641688547408	207.5620785234538	219.31920120675971	226.75333256398136
50.0	60.0	211.9673690799192	229.28847471230873	226.91909609533835	230.5388813059302	163.3989118783553	165.98739872393406	249.21778676379037	246.39892852160693	205.53721521519952	211.78142300884934	205.54049624218572	212.8326794229469	309.44609856214487	321.0578839586604	273.74525913009984	263.3242939735318	300.5913661508057	296.7711791722092	222.4583363557919	221.89259671332118	235.36751212028526	243.13353742626626
60.0	80.0	224.4935466246359	242.01340130717696	240.70094836509435	244.3876763031038	173.28403853862685	176.16557852778752	264.3896658564455	260.94017617281827	218.0760920537738	224.6874735432241	217.47134377041252	225.2571390319362	325.91433660535574	337.47445977280023	287.14525759983917	276.7695005905129	317.28149705201236	314.0995744654706	235.78253696116653	235.4952314706136	249.98375932230715	257.9559896843154
80.0	100.0	239.31271221266547	256.98003310076314	256.7958684338475	260.5588713423209	185.13405581155746	188.69639209716087	281.98734873416504	278.11797668651485	232.5594221727001	239.78984194841922	231.34209558030534	239.87703810242618	344.2642877621931	355.94811866469166	301.72087383311157	291.88249009656477	336.1647716139526	333.71560129424404	251.44128897698099	251.61867806806367	267.0673480283935	275.20408623977374
100.0	120.0	248.64371568864988	265.541965162679	267.2844583942264	270.98151438712404	193.19662934838797	196.81428643069847	293.4508733731975	288.67752454168925	242.21100279033928	249.72264802376466	240.15119745923644	249.034288736876	354.8433890181881	365.9985083530983	309.5258070990092	300.1911135273776	347.45489894039423	346.05975790642066	261.46540285046086	262.0646383293746	278.37569237587024	286.44902008867297
120.0	140.0	255.64066696110382	272.4808755478838	274.7904387093992	278.4489100573	198.7170294348904	203.38254012338052	301.5935172627042	297.1151036118216	248.7570871036217	256.77125818958007	246.1664580195883	255.70303878773007	361.43685204919615	372.69189962949173	313.50641130701365	305.42575378796033	355.0194769731196	354.28370025306805	268.79047199452583	270.02486052229557	286.56222931480926	294.4943361115736
140.0	160.0	261.637090538165	277.876717669221	281.44312644413606	285.01609364701386	203.88560497823892	209.07261694838257	308.80700183758125	304.07193523791074	254.73368276261223	263.0802477507972	251.47863754346668	261.4420099012386	366.8785132329098	377.85088014225374	316.70707200810676	309.564190151038	361.35802803069	361.47478589408394	275.17979549438496	276.9479300775269	293.8678302453528	301.6177902374346
160.0	180.0	266.31469140124796	282.1713869232702	286.5338344607096	290.02260222223947	207.7633433411847	213.78358145675165	314.2996320124501	309.7026523736486	259.1665918685613	267.8942694994823	255.354019750123	265.81359143566976	370.3285574788501	381.1917632906387	318.11145551814764	312.11345827216326	365.7735778237943	366.60753076284175	280.1053826164468	282.4711339183969	299.5412948977429	307.071137807069
180.0	240.0	271.19589983160165	285.74685473998596	292.0411598279371	295.28601085783896	212.24287136563345	219.5565632186142	320.1761977863158	315.59670076124416	263.90730587492834	273.17653723253704	258.9641987783609	270.1307350888615	371.3055198819754	381.5867246896678	316.0658175005231	312.1494744266929	368.64485570635657	370.9859999160376	285.3239770670001	288.79867353569165	306.0160151008686	312.9750488069824
240.0	300.0	274.979311753364	287.8152604174597	296.27687653343315	299.15078640954647	215.99703462153678	225.42888512355538	324.53365869152776	320.4718186187985	267.3069426404865	277.32145890040226	260.9225289827166	273.0685511546909	368.18085738133146	377.813970038677	309.4763338027775	308.6154279011619	368.2165927668316	372.4670401683136	289.3119276557501	294.41592936235674	311.43953872739786	317.48587151278485
300.0	360.0	278.23226646234093	289.6687713749532	299.9018902695703	302.4596138897434	219.15814907523557	230.54256066191027	328.2748818096374	324.7566599115417	270.16414363627393	280.8526317881318	262.5569022470315	275.5772367908982	365.7145771589605	374.9061875934801	304.23226947914225	305.8028334259605	367.9608080746043	373.7678881077956	292.73404371360743	299.2888349123946	316.11089030923307	321.3604800434018
360.0	420.0	281.8216043468236	292.14363548032753	303.8418730435333	306.13760555099907	222.48744337234575	235.67282186942762	332.381557736823	329.38256615671605	273.35188205916717	284.6609837217104	264.7024027016946	278.51603603332796	364.8072321189141	373.7147751340747	301.01523670696935	304.4834426571795	368.84229531251157	375.9234042140903	296.4932106133756	304.33410914082117	320.99472880855035	325.5672108365686
420.0	480.0	286.81457334884686	296.320921799839	309.279335978927	311.376917507103	226.82436763789144	241.6482107959125	338.1651965460841	335.5925416270208	277.93901969073585	289.84784390933925	268.3823460021025	282.9494149237277	366.90012701641604	375.6829658925517	300.9432985829735	305.8121090650361	372.33051066459103	380.45662320184243	301.7316016363631	310.7051521759144	327.34216345668926	331.3842085986154
480.0	540.0	293.3053130296756	302.23437290989887	316.3159887608783	318.26866729589585	232.29082064897568	248.61786182300904	345.71979992885804	343.4769659496928	284.023972178475	296.5212649820526	273.65827608609385	288.9538702022188	371.8411245087468	380.6167308596	303.7515536184757	309.6433243640091	378.3632584480483	387.3682405706389	308.54494919310645	318.52780800685395	335.2751764911122	338.9111665854631
540.0	660.0	300.9175775059091	308.8814306937629	324.66681769979607	326.402650481154	238.83743056976942	257.0500348631277	354.6847745956697	352.71323486579286	291.24708701943376	304.4594462268335	279.77174978796734	295.9388496172675	377.25501323579675	385.8696756740756	306.65476728919725	313.7144939488542	385.1515415196689	395.36560718798194	316.5797537823745	327.8881092849299	344.7955325351445	347.8552950281636
660.0	780.0	306.0066826122451	312.71082945657474	330.28456897832206	331.72467300222127	243.47598305830925	263.91072710631903	360.6104441052797	359.11853297811035	295.9237726337952	309.8613631760498	283.25370144628835	300.29701282077474	378.4512237095133	386.8136619294843	305.796908198796	314.2219876809869	387.9277850267468	399.4421838801993	321.93889416481045	334.7822403048886	351.58431157993937	353.8641871765427
780.0	900.0	313.2404291246327	319.3135368683248	338.11180662324864	339.3792836137533	249.58747581019088	271.9547147803119	368.99927432592034	367.9474930265352	302.6689936613002	317.2911015386673	289.1047736806957	306.9641223930293	384.2670415469756	392.70623322343613	309.65191335102185	318.8619131907713	394.740355757169	407.11733547441884	329.51938945926435	343.59059798647746	360.4580611591418	362.2334648878531
900.0	1020.0	321.8232860130919	327.4500811142263	347.4494605730561	348.6057846474927	256.7206151867548	280.65189670142644	379.09868082665	378.21006103179434	310.8787007256913	326.11587123086974	296.52064495573666	315.10168200696444	392.9861196226741	401.5132412791198	316.3356186512014	325.96458372150533	404.1412122162402	417.25451533376423	338.5604831766682	353.6385400691831	370.79397529079836	372.23384422573986
1020.0	1140.0	326.43348984606166	331.4214312838969	352.52039419239037	353.53116110506653	260.7508803492649	285.98369773085483	384.52904834363795	383.7909077197093	315.27499584987123	330.9504546367859	300.23001701500135	319.3187990916177	396.44764383617337	404.8765212236677	318.51604690456156	328.6394437327991	408.2966940832029	422.094195412206	343.4276856621373	359.381515789051	376.6128403844082	377.6589503642257
1140.0	1260.0	323.4458966712256	327.3914056519495	349.4360341895731	350.2199199245911	258.81868115739326	285.01778961674813	381.0396326500226	380.50704097331356	312.3235748510399	328.1496596900956	296.74362210670944	315.9919860430297	389.66211189545254	397.67169014017185	311.9021447805435	322.6583207619862	402.27556683727073	416.69265646176365	340.3148271575534	356.9914642413189	373.86089615934407	374.3531102496046
1260.0	1380.0	315.4580862296098	318.4047303590285	340.878389659842	341.4269480649857	252.82223741079602	279.738273249456	371.56394121046924	371.42204294516154	304.43007161660756	320.2041474089143	288.58605771875585	307.7510502825085	376.68959481394836	384.2682156733224	300.27979950772163	311.6026635631474	389.9108340117532	404.6685996889569	331.901607032568	349.0918575181687	365.2590809655759	365.1768365522131
1380.0	1500.0	309.6303292600014	312.04861563218833	334.5906392895123	335.0022745913168	248.3770379876286	275.7417956084796	364.61219706618664	364.7719319462721	298.65451787266625	314.3533594969245	282.75022829034907	301.8002400097698	367.9239294976245	375.3020452087416	292.81016531742773	304.24889880907176	381.3258560006059	396.13392843499656	325.7466863643488	343.20465079803347	358.85825335277735	358.4292672357084
1500.0	1800.0	294.65587573765623	296.0558259745933	318.52909457241833	318.7127044283889	236.78313736843518	264.1433181537389	346.9882990803343	347.3882222835144	284.11437621907913	299.3513591165412	268.36339342895144	286.8111543251536	347.406999277152	354.1772965428812	275.65295315781003	287.0112292967047	360.8378147363678	375.5410554035082	310.01203844027714	327.5089544790538	342.1720617068461	341.2233341181883
1800.0	2100.0	269.04114293393275	269.4341623878688	290.90441569067843	290.8494638193088	216.6268173831073	243.19712098731097	316.7401230316802	317.51323858625113	259.2261519747285	273.48833210424624	244.21511827631718	261.43480218841665	314.2131180812062	320.22047098628957	248.4691825593767	259.3676506700032	327.1855495158356	341.19637005961476	283.0468697560723	300.0216433861968	313.08366949334743	311.61719910176953
2100.0	2400.0	253.08240699876504	253.5605147920378	273.6115886304107	273.56301531800494	203.75922606136987	229.05643963035325	297.9014842647416	298.72540651603776	243.79272558765769	257.2296955158957	229.7364977485031	245.9266906543425	296.1165453638919	301.9000398096802	234.6985600100699	244.57989766277254	308.0320301144095	321.02171106337084	266.2376928494278	282.2795840950056	294.4974244157218	293.0889909087083
2400.0	2700.0	243.7782208103982	244.55552079876261	263.52634550607274	263.54717104055385	196.1391165607276	220.2400373948284	286.96680172244606	287.6649757417247	234.87308435832153	247.71784215605615	221.55994862506242	237.02420693075118	286.54299248518123	292.2280510098077	227.705497974272	236.82075289293087	297.6081369667175	309.826846695892	256.45148976252926	271.65332348735745	283.487814011265	282.29041235364105
2700.0	3000.0	233.55900408450168	234.33280823202264	252.4845458997265	252.51413101033035	187.91223691502893	210.9482883682102	274.95034258857726	275.5764831883089	225.05283804185243	237.33614394990227	212.32728996819063	227.11417748319636	274.69667823683784	280.1316945976447	218.3070697076431	227.03252618439166	285.26264071295543	296.9454765932549	245.706096043852	260.2245844007269	271.58348022036193	270.4623159824169
3000.0	3300.0	218.3787918378458	218.78711551797682	236.11903938053527	236.07934380394457	175.83486889411978	197.73374649484182	257.0914405474252	257.73911749760765	210.40456053078174	221.98100018003154	198.29146996695533	212.22513245673233	255.76342883994775	260.72493096063516	202.76744032029302	211.24423705457806	265.9711952062927	277.15152297940165	229.74553615925416	243.58681608369477	254.14648419600505	252.9320978624904
3300.0	3600.0	199.66912081472512	199.69480065717653	215.92043104087736	215.80167559925601	160.92331512894023	181.4680495788158	235.04523501323078	235.77456997499672	192.31471187805403	203.02659045063194	180.9911923323842	193.87671932181078	232.58967486195488	237.03397364721855	183.92426675661278	191.98008080252586	242.2691712870047	252.7571498302591	210.05988397419765	223.06877108352563	232.6172671918469	231.29271371255606
