start[seconds]	end[kBq/cc]	NAC.LModel	NAC.RModel	Striatum.LModel	Striatum.RModel	ACC.LModel	ACC.RModel	mPFC.LModel	mPFC.RModel	MCortex.LModel	MCortex.RModel	oFC.LModel	oFC.RModel	Midbrain.LModel	Midbrain.RModel	VTA.LModel	VTA.RModel	Thal.LModel	Thal.RModel	DMS.RModel	DMS.LModel	VLS.RModel	VLS.LModel	
0.0	10.0	7.239190394215789E-6	2.0448391122102365E-5	8.263841020955083E-6	8.597986414392633E-6	0.0	2.1957682356182844E-6	1.4558977189870348E-5	2.287030696234111E-5	4.045842316200552E-6	6.655188277246605E-6	2.374465991625498E-6	6.519025832818763E-6	1.675504097838028E-5	2.6269082989218882E-5	1.7010009454417146E-5	1.3292641216237963E-5	1.3510718781248469E-5	1.1368611927442063E-5	1.1708673427922937E-5	3.1619376839590223E-7	8.611642881032974E-6	1.0934200379205784E-5
10.0	20.0	32.28618046191586	47.41607952519918	33.0090640856949	33.50172337725887	1.0664643477491795	19.72442172576563	43.19260490149478	52.661920079526695	24.20282077506926	29.33173647794691	20.797651966765706	29.98847998643955	46.57423002948434	59.28585905063943	43.974663640924064	41.11686953056522	44.13674991612727	38.88495543207955	37.69280205573112	13.615757136206456	33.79382374333963	36.70949799162028
20.0	30.0	172.55569847515167	169.68139825447676	160.88760945616147	161.3483200326838	82.36111869523809	125.08030152712882	196.01092135052437	207.0220093747044	128.75424398344546	141.1589787431475	137.03484643166027	155.6423207297421	212.14250852261222	254.71236491856916	172.64064079843266	188.24019949024284	222.41928791984355	190.97679085547276	164.0136984616423	162.3886880448471	166.3918131501307	165.79838826126488
30.0	40.0	219.03875630383217	210.11382063346392	212.27810854626324	212.78317496925953	146.49467573433975	164.25199920749643	246.26967595673827	245.57352710908907	177.94764628769417	187.95485541930083	189.89374277542373	201.46785945343618	283.8828570117049	327.53806185461815	233.87382793685157	243.59986504480923	292.4787041033595	260.66296790306177	209.57372797694035	233.21319109287037	219.74887873449188	217.88379673176755
40.0	50.0	221.68814976551838	222.283418013709	225.62146575780508	227.05043888803257	161.95627988477116	172.4213751590499	253.58796591439216	248.5051256158142	197.12173511422995	204.8206234821306	204.8215583228	210.93635868191075	304.7110148956794	339.1396245903704	260.4696798706946	258.1118347136194	304.3199477444376	285.2365816294077	220.89712523918882	237.72138308400514	233.44583822909058	234.13426267797433
50.0	60.0	221.45598957493854	229.1610666320496	231.96334742967022	234.34964597810864	167.59308302945618	176.56075004392991	256.963118616587	250.6556321985462	207.7481678506592	214.52344307807752	212.096601027815	215.67666365047552	314.51198762491794	340.65511189118797	274.60531184271167	265.6270600401596	308.19684604945974	298.77395546647256	226.81419771301196	234.8351439835782	240.06999203400835	243.05660651864233
60.0	80.0	223.25029758695504	236.95440777224357	238.67486725943186	241.7633730326082	172.24874025838156	181.20810172122341	262.15998344973343	255.93250207032523	217.0322987489026	223.71824595770758	218.52668230674652	221.0765338635751	323.11222779895706	342.63764884568144	285.7955109877802	272.6112446661062	312.7623942936975	310.82272303051514	233.4379472099921	233.94155485911978	247.29359526830675	252.01298933369247
80.0	100.0	234.4957515326495	250.53932313398323	252.21410211132473	255.72158364515823	181.87045477543916	191.8491553633805	276.5474536432326	270.5140965808857	230.36316346662483	237.63865491406793	230.4556568846835	233.39984649861623	338.9285301245252	355.95075516711603	299.6612468826457	285.93490218940013	327.60805644620075	328.7273307777843	246.8892437662302	244.208775081211	261.71562177145705	267.2711037635096
100.0	120.0	242.90661512277129	259.24700796528936	262.0979551927493	265.73716003337125	190.5756601521328	199.91647706807498	286.67164029755907	280.1371712978134	239.9581374975749	247.47953593791925	239.27564694652787	242.2221133063307	349.3762657598533	364.8303133360335	307.6094094775431	294.2300786185169	338.1400298560542	341.0713479384877	256.2939661646269	254.16056264900024	272.37891006964065	278.11617937551995
120.0	140.0	247.9375550408291	265.05822294032976	268.3032133377898	271.9980491136591	194.7599962136943	204.9027259116119	293.10562141922213	286.78789437940213	245.84552224014664	253.70888596362434	244.08067400538934	247.53722767836481	354.69717758905284	369.00679435594964	311.0812612431137	298.283932046536	343.74883904875855	348.1161277760929	262.40938305670284	259.17701923925273	279.2079857448251	285.14183033667854
140.0	160.0	254.6201840449786	271.1653347942406	275.39781867758956	279.06965450870206	200.54423277974516	210.90839123267736	300.80454664853687	294.4839771990238	252.13003705231233	260.4087233774874	249.88851148657642	253.9169780378594	361.01436720759983	374.97808546584884	314.6866574441234	303.28309131425715	351.094446181436	355.91071351064767	269.2583929619236	267.0609157874653	286.9900016875802	292.80002747836414
160.0	180.0	258.7901344863247	275.23283798202255	280.170293988202	283.8023548325553	204.12325850250147	214.94458761807175	305.82231257728824	299.65292612655367	256.4277661040844	265.0245788214002	253.43640244779593	258.00696278324165	364.33576491316296	377.69507566391746	316.04342264192314	305.6774752716225	355.1926050711365	360.76943314193284	273.88566274207716	271.8260294216597	292.338440639325	298.09908783155146
180.0	240.0	264.0694109457384	279.5104026955196	286.05019206033586	289.5370744156016	209.1280800252127	220.37503516025336	311.99635771104977	306.0819849496886	261.53019531560733	270.6872269484132	257.3530740844687	262.93627405657355	366.23286502698477	378.3352525150619	314.4421550831581	306.57412248564367	359.0155278304397	365.725067082256	279.5096418416663	278.6784797133531	299.24507382707475	304.70519226675344
240.0	300.0	268.62282623221387	282.27444700092406	290.79126553499816	293.97122104045894	212.90130945181886	225.34600588577604	317.13103644256387	312.00298554026404	265.09559003420355	275.0621795640572	259.3597653656701	266.66031674446185	364.1830007342825	375.08877947010694	308.1100202584558	304.01666206128306	360.05458744007285	367.6049664535658	284.0885490994686	284.9833734725547	305.2835713252218	310.14933849987824
300.0	360.0	273.0778323850603	284.928530778828	295.2552439909173	298.13681207548376	216.47807640243704	229.98810689038964	322.06757379495485	317.611146373086	268.3637626222523	279.07793658899107	261.3882936815933	270.2352675559196	362.9651699109149	373.1545804384138	303.25327774291304	302.30643740914303	361.55371857473955	369.5709796158948	288.39689634777915	291.20473420313283	310.91654973214025	315.18254326406753
360.0	420.0	277.85345468303314	288.15046101166314	300.0228510114486	302.6423181769824	220.11078639301238	234.70779462405036	327.38945165917124	323.570451445176	271.94016631823814	283.35892823682775	263.90831274239395	274.17043056211213	363.1749456156891	372.96507886996136	300.3827244771754	301.95601075668856	364.04820996541554	372.3515919424833	293.0312804822967	297.5061691905734	316.7485968286296	320.4823503445407
420.0	480.0	283.8700303886024	292.89795016285944	306.1559359655907	308.5683994708733	224.73772769870504	240.36265105891584	334.2289366793311	330.8934153221373	276.8511051814409	288.9422503245967	267.92437521167267	279.4288070653507	366.11769555132634	375.7432772796873	300.52397688375765	304.01356422384816	368.8313245857283	377.357432528587	299.0007892562809	305.0094218444195	323.9038147373948	327.1947864333437
480.0	540.0	291.36293741546893	299.40968103179154	313.9008096404287	316.1586315976841	230.50485815601604	247.15913657223825	342.77655752630915	339.8802323190312	283.30360510175234	296.0742009830209	273.5795089978082	286.22654557333357	371.8941257922591	381.5338638217491	303.6479756324707	308.5393991376976	376.072715367742	384.8181147978296	306.5540682617006	313.9250702472156	332.6475811232809	335.5908943785045
540.0	660.0	299.7368800266731	306.6036299247128	322.8177543568369	324.8915469136863	237.44615726622007	255.132550743337	352.44108170090624	349.99827801895754	290.86920000347135	304.4119504633964	279.9767192864543	293.9161038594427	377.96584409302636	387.1292358394846	306.7604217259417	313.12877549612807	383.76045399066436	393.2458198222903	315.1859788160326	324.24081157400263	342.8708021803063	345.3923227176836
660.0	780.0	305.7361242349283	310.9556338465041	329.0269832638955	330.8158727242385	242.34193017924218	261.244232931096	359.2171910282077	357.4931381402203	295.7845395369062	310.1197489514455	283.59559964400546	299.040429978572	379.68815983018084	388.27523963324154	305.9097269681644	314.0656870921739	387.51465852700466	397.60598952506194	321.19826393944015	332.25055460423545	350.43373661882634	352.3480679708649
780.0	900.0	314.13077546443776	318.1155604595052	337.6472438027468	339.2151240836427	248.74486388182729	268.95479814743356	368.78371766199274	367.61228639773776	302.84737762565953	318.00392517340794	289.7902934243564	306.58633447930254	386.17598856300566	394.92131493764015	309.9184854986636	319.2450601042156	395.4875998231944	405.7243498704707	329.5909362141022	342.42411967236905	360.23172340847697	361.6623657137151
900.0	1020.0	323.32124103104496	326.59515193534355	347.3977133414828	348.87157033891145	256.1161358968567	277.32061882301775	379.44224784438705	378.5950723784618	311.3004595368583	327.13388169908285	297.39938947227887	315.18337774675206	395.26073557166154	403.9921340740201	316.7125208017166	326.5801300974116	405.38934088215024	416.1155240354088	339.09063408478767	353.2786531569673	371.1286443742809	372.2902460574665
1020.0	1140.0	328.3922524201202	330.89066471806717	352.81548769807523	354.1473914885395	260.38270572067063	282.27761198665684	385.28965604045106	384.75649878551184	315.90432327107993	332.19544028283025	301.2334797966598	319.81927437099824	398.9754512722863	407.40561526728186	318.98315241500535	329.448897091871	409.93540399121116	421.1737962662548	344.31766623984595	359.6889173234073	377.41687813927086	378.25996045507287
1140.0	1260.0	325.75481082948613	327.19941212648064	350.0158501875314	351.1584865758734	258.6890704084924	280.8337612178759	382.0936712921439	381.96846992959183	313.0662615727483	329.58493065951734	297.7954535045031	316.8921189698191	392.3935958382962	399.96224796638177	312.3936829975582	323.6517404042714	404.27539300962246	416.0029765294677	341.4927982862107	357.90558286934396	375.03237726754634	375.5081613403509
1260.0	1380.0	318.3741994214403	318.5961202140777	341.8823042558337	342.7735767174311	252.9016889496348	275.1521139238044	373.2542318702386	373.67716185918863	305.34409846173764	321.81336030619656	289.69026326189487	309.1977184811125	379.66960490034376	386.6185839861413	300.77049542323437	312.8567432873179	392.5008573209064	404.1957766204246	333.5536722058203	350.8671764619714	367.0294071078054	367.00709398093886
1380.0	1500.0	313.26409353256116	312.6266361007964	336.10861129837537	336.82562848289615	248.69094849961155	271.06843843413225	367.07136306286003	367.87333613554836	299.7789850248193	316.23257032361414	284.0504814603634	303.81095940518327	371.2631700581078	378.0978479187272	293.4265837914699	305.84042583086654	384.5853932109396	395.9858691025443	327.9235190338969	345.92756979883524	361.2467018926332	360.88598702763585
1500.0	1800.0	298.76327731030074	297.02790093116306	320.4783247929898	320.9547227432879	237.43124717310172	259.32696945718135	349.9216193923853	351.1861090596106	285.4451492891855	301.47938574994225	269.74715646721256	289.2872005429114	350.7603033622459	356.70021200808463	276.1582665216099	288.6402547239545	364.3856658092938	375.6848833903952	312.61521065116034	331.11764384435224	345.14399759097296	344.35543775742406
1800.0	2100.0	273.33587864737405	270.3911217633709	292.89272530709474	293.0677545439887	217.1704009609135	237.9764969057128	319.8850773014313	321.65175896305453	260.292730438897	275.35155890597434	245.27850658685495	264.02594967400654	317.17300851111685	322.3468966098924	248.58025561835694	260.7612428801885	330.6917751787078	341.10714338712205	285.67897008035965	304.197338441378	316.1771809068172	314.90287003152497
2100.0	2400.0	257.72742119383474	254.84291762549805	276.0040674727049	276.14407748296986	204.55867375936683	224.37191122334434	301.5349129906936	303.3047298225327	245.17181827948372	259.3935203714542	231.13240247033696	248.82102984092953	299.40101626316465	304.60331428393744	235.28448203579055	246.29868218680014	311.8822340423336	321.45020965407	269.22677553519713	286.97033808017545	298.00636638972463	296.71652207784547
2400.0	2700.0	248.1394796393253	245.71039821956768	265.7846497362497	265.9801416606192	196.93211080111925	215.88246152898458	290.3659696236526	291.9497794273633	236.22940150813525	249.8214446582432	222.9331997737721	239.70089492119595	289.59182229612117	294.77939970835314	228.29996823873512	238.37143110116565	301.09384358367856	310.2310785505749	259.2681981945148	276.0818277816137	286.81750042721256	285.6810730534293
2700.0	3000.0	237.83459391113212	235.60518006812777	254.79607725096275	255.00039033326044	188.81587230556877	206.92458969604004	278.33196298127746	279.81179428603116	226.52302842810326	239.52204909423293	213.80398212188726	229.8029358572329	277.8376748616513	282.77164937507877	219.10654940932628	228.70661904210624	288.76186288828654	297.5671918962995	248.54438760494367	264.589178397539	274.92914598231954	273.8707298618385
3000.0	3300.0	222.286921793311	219.87585563109695	238.16035789796948	238.29117190034495	176.61699318478233	193.66696424335265	260.11502786549147	261.6271040197437	211.63971854653792	223.89114203252382	199.49334316850198	214.67465225268867	258.48902115816753	262.8131242534283	203.25591848957356	212.63569863338114	269.08834017837	277.5196941939562	232.29293922077127	247.64860170875528	257.1873933182479	256.0772496027794
3300.0	3600.0	203.22008839321254	200.52395228779628	217.64546842475139	217.67221152638632	161.4797678007635	177.3182082518054	237.72148341792257	239.31488316817473	193.20822645107177	204.55233734590345	181.83572718575056	196.0426336972202	234.79910732498905	238.58814898634472	184.0058620878513	193.01698762277118	244.97571900310936	252.76302980765993	212.2687892571325	226.84363213794285	235.29773544514828	234.09579453277246
