start[seconds]	end[kBq/cc]	NAC.L	NAC.R	Striatum.L	Striatum.R	ACC.L	ACC.R	mPFC.L	mPFC.R	MCortex.L	MCortex.R	oFC.L	oFC.R	Midbrain.L	Midbrain.R	VTA.L	VTA.R	Thal.L	Thal.R	DMS.R	DMS.L	VLS.R	VLS.L
0	10	1.92E-08	1.90E-08	1.03E-07	6.81E-05	0.019233784	0.014991111	0.010964871	0.015165412	0.002456709	0.014684003	0.055495488	0.039046385	1.84E-11	1.84E-11	2.29E-12	2.19E-12	-1.18E-07	-1.17E-07	2.50E-05	1.13E-07	-6.56E-07	-6.05E-07
10	20	14.32224681	71.6534989	25.45211102	17.97840937	12.02915855	9.551102828	56.33522541	24.61311387	29.49358434	11.79760418	38.89516813	21.06786657	38.39158794	49.44441372	39.25634316	39.94694003	20.67358146	24.17974439	15.63312186	27.22554644	13.47227138	27.65651623
20	30	209.1713733	158.0180997	159.0029114	181.5307556	104.7571704	160.5720086	232.0511297	246.596492	130.717082	149.3888341	119.9067575	161.9549524	221.63769	268.8577291	180.74691	186.8413212	242.8867537	211.9059903	175.668377	149.1178908	209.3065354	172.5497102
30	40	184.836839	210.985234	224.9138084	190.1573256	103.4316572	192.1256891	240.116796	256.7269034	156.4746652	194.3488325	167.2728573	225.1652326	290.176747	288.9804744	235.5931362	283.0020987	293.9912412	247.804195	197.8243904	261.247566	146.4688797	237.569076
40	50	199.0515056	217.6486319	196.0566465	221.3069628	181.0716717	128.1077134	244.5679981	212.4437812	219.8414081	185.7262608	202.7051901	168.4944985	302.1621218	340.7013576	252.0531138	214.8032482	272.0217237	302.2449673	217.8155987	186.5367888	218.8159208	181.6323554
50	60	245.9807425	221.7457913	239.4804076	232.218893	134.1007329	156.0061912	229.0394004	202.552064	207.1822702	202.5525889	226.4927543	196.6324877	261.9877712	393.8747832	268.8768821	223.3683897	313.5794943	288.9256509	239.9324881	248.3162317	194.1805267	248.5083688
60	80	265.9737825	259.4424991	261.4992218	266.0546531	179.0911278	215.0459097	289.9959896	270.149245	207.1562955	220.6044275	224.0813887	239.8713184	350.8837244	315.834578	299.3187671	298.4243766	303.0797966	327.2717101	242.2038196	285.9050787	293.1365469	259.8142254
80	100	257.0982044	221.8938856	257.2323829	264.3582536	190.5852003	183.0071861	320.8012568	280.1301584	226.0752911	238.0984562	228.2569006	226.2010814	331.1076868	350.3148091	284.0083409	292.4855953	331.5008623	321.9898118	245.8908006	236.5817341	280.791381	299.8903348
100	120	188.9194346	254.4849777	257.2697386	272.5925866	178.1366527	164.2169946	295.8196044	300.6166939	232.624719	236.8375843	244.313704	242.0719647	358.3311708	363.8521289	284.7529009	315.6273848	333.4760264	360.3005574	254.6601077	230.5977078	292.1781495	288.9864867
120	140	204.5228536	275.6759886	272.5378762	283.4634191	219.99878	230.6020043	269.3413863	273.5488067	252.1175339	273.1677774	229.2311683	269.0386906	337.1382337	400.7627462	306.17129	264.840456	370.4381852	346.4617523	290.8188724	262.0178734	273.4483044	281.346394
140	160	226.958211	298.4282666	271.4755808	254.8309916	183.6426422	241.1759555	257.4996635	287.8235113	263.0083986	266.2746815	230.3359824	282.4129049	377.21746	318.7817879	308.8385855	305.5253703	383.5530589	347.8942221	228.6339956	258.251721	252.7910119	293.4424417
160	180	308.2043839	326.4634225	273.2732882	274.7940836	196.9899735	190.6498544	305.015415	283.6737618	258.7957223	261.1259577	239.6361942	245.4848869	343.0405283	412.624503	310.7654076	293.3251614	324.4480369	349.3145654	252.266524	253.8976218	311.194141	300.3681181
180	240	268.8530662	267.0414542	287.0718698	289.9559208	202.5534069	233.2031279	315.8359928	304.7665656	253.8420764	280.4892795	258.2231148	256.0791243	357.0210541	357.7482118	332.1570142	328.9515139	343.4347234	352.8446704	282.3767284	301.1374214	309.3531084	305.5520958
240	300	292.1680197	274.9722774	295.56303	309.2821611	234.1429975	242.2825013	347.4749591	341.7782046	263.5556324	270.0394894	267.1914475	275.8126811	372.8125469	386.1756862	342.9636835	307.5407712	360.8940311	380.9010793	287.0510971	299.9860342	358.7931172	324.1779798
300	360	272.5529207	269.8959433	294.0089897	304.6424047	215.0410191	236.9811474	316.2673297	322.4787546	275.3473497	271.9491725	261.1474008	282.1240833	390.7247537	368.2126636	319.4369188	303.9796916	356.5524778	370.5729399	312.1621329	288.4654733	323.6254365	325.3079025
360	420	285.5090081	285.7170211	303.1215955	313.8867672	238.2159967	239.1243727	342.803591	347.6589953	278.7583647	303.3266975	275.3401488	278.4595361	377.1590608	391.3850162	304.7590046	299.7439179	361.3576398	383.256927	300.8662732	285.807904	332.6091063	344.6608557
420	480	258.2590199	329.3465824	307.6856775	314.5102257	252.6779045	230.5880273	319.2776013	354.8359088	276.0678441	302.5187457	272.9143258	271.0118219	377.2803665	367.2582035	313.8696709	339.414152	379.3701583	353.6307792	313.6416932	304.9610318	341.9111152	337.5417937
480	540	313.9312593	292.4880958	310.769128	309.0936438	244.5466801	244.101229	328.8757713	334.9104923	288.4799431	292.7537753	276.3913178	285.2380751	366.3402331	383.3633749	311.1151347	315.217374	392.2502043	397.2202375	302.2454126	318.5945775	323.4962279	324.5569792
540	660	318.7845199	296.9052916	317.4459066	327.0415467	238.6022195	244.7561362	370.359973	365.9692606	292.3306438	295.1834039	286.4037801	305.3162263	368.9716066	406.0731685	313.7837093	321.8415398	391.0637137	406.2641957	322.9095675	322.0344242	333.3702882	316.1016779
660	780	317.8516874	314.993997	334.8875952	327.1340878	247.0917157	259.0670973	370.9359867	352.3663392	301.3420835	310.9710675	304.2609718	283.0896527	418.2557126	371.6347536	303.9967975	335.0880553	395.3419479	407.0373809	316.3318957	329.5170332	346.8764279	368.2355841
780	900	308.2221978	314.9905514	331.6255394	329.7237059	253.250033	284.9790794	360.6270876	352.5893535	296.8396451	317.9590275	292.2538008	309.5414811	394.2306238	389.4642096	317.1216562	345.5549226	401.3460629	422.5807748	327.6921179	345.0307317	343.9305773	356.0977683
900	1020	303.1768806	317.729997	351.3871333	351.2846299	257.690937	276.9918404	381.7431251	362.6880901	309.5195745	316.673179	288.0411784	300.364502	391.8404835	422.4448608	307.8289614	319.695392	411.8179709	412.075996	351.9469002	360.6450349	367.0645562	383.5990342
1020	1140	281.3445476	334.9616499	328.7022893	329.3182379	263.0328148	271.195194	386.1993105	369.9194305	304.5675671	332.0628987	306.2089188	296.6460223	405.7728908	403.4937168	326.8037208	301.6346471	385.7116875	401.0083326	326.0884845	333.5089922	326.9272736	344.8848181
1140	1260	324.5128318	303.4313348	356.7285907	333.0018793	246.5192722	274.5084866	352.1523867	359.0398104	300.5557456	322.6238147	283.7217193	318.5966398	380.587408	387.0149347	283.6467379	308.3512199	381.0220579	409.6575935	328.9005274	374.3838155	339.3085133	394.6876946
1260	1380	313.6806643	302.1431874	339.6386596	325.274952	249.3698908	266.3248838	406.0500368	391.7744757	305.4553447	309.6990915	291.3888909	301.6645291	374.6700234	414.0503797	273.865974	339.3439341	360.6928469	408.4046353	304.1502055	352.2348829	342.7366302	349.4722831
1380	1500	286.5449867	322.4335684	324.3712415	330.1165015	243.5622928	264.7475638	341.0224676	361.7969073	297.2853402	318.8887757	261.8983596	297.4647291	360.0910839	348.7038437	295.5590361	297.202636	400.6826269	400.3061552	309.0303193	319.1405482	369.1712031	353.402483
1500	1800	298.7401411	294.5806248	328.5399012	325.9693604	216.4232534	243.1207467	352.9718175	371.398437	288.4884066	301.6992467	256.0169122	282.4928274	349.7205992	362.3321184	289.5123696	279.3446254	373.4382627	384.6990662	311.8519213	338.75801	368.2318413	365.0630182
1800	2100	293.739756	282.8984728	311.2828613	312.444881	206.8702363	254.6706712	336.9689339	322.8346472	269.6040208	283.7634086	255.4306724	274.3193772	337.640592	339.2332957	262.4650266	268.8606635	332.8704282	356.2162889	299.99821	319.5161244	345.8484467	321.7051378
2100	2400	278.7589725	269.057945	293.1155732	300.3920731	216.5255338	240.060259	317.3446221	311.5190231	253.1531912	272.3025342	255.233775	275.1284365	304.3920246	312.0055388	237.2275551	246.0858335	318.3936174	350.3064702	275.2203773	303.5171482	333.787957	312.4666541
2400	2700	280.9292112	259.4651585	260.184445	272.3196323	215.4256892	223.3264313	292.4378603	290.4644782	245.2393114	247.0437237	226.6140378	245.814686	271.7036575	286.4042486	236.5415963	223.0940929	312.0709679	302.1456637	281.1005229	259.9931872	271.2269392	260.5579061
2700	3000	244.2812222	221.707263	254.7469115	255.7147508	170.0496326	192.7924624	264.2345909	264.1590338	224.132028	228.9801997	190.54245	226.4179491	243.6564464	260.1224306	198.7904991	205.4871384	296.1417629	273.6524918	238.3521967	274.741505	281.5818005	261.0693847
3000	3300	205.2418498	239.2447844	240.0519772	241.7998541	170.7633426	210.0166055	242.0468146	240.0643779	203.7017236	230.4679686	191.5300633	217.397938	238.57238	266.4863127	194.9407158	197.1411237	262.7353185	280.5056104	234.8625603	254.5394029	251.7679752	262.9777548
3300	3600	200.1021486	201.8725491	208.9799106	224.464674	166.5717223	175.9092212	238.5412472	256.6345482	188.3631036	199.7204874	185.8891028	206.0990046	206.2018033	230.6097209	161.553756	180.1416811	243.1747438	234.5934474	232.4555138	212.3618818	241.256692	233.0959453