start[seconds]	end[kBq/cc]	NAC.LModel	NAC.RModel	Striatum.LModel	Striatum.RModel	ACC.LModel	ACC.RModel	mPFC.LModel	mPFC.RModel	MCortex.LModel	MCortex.RModel	oFC.LModel	oFC.RModel	Midbrain.LModel	Midbrain.RModel	VTA.LModel	VTA.RModel	Thal.LModel	Thal.RModel	DMS.RModel	DMS.LModel	VLS.RModel	VLS.LModel	
0.0	10.0	25.766492986321758	32.78585953443932	17.37624343947826	3.430461937934261	108.52685071884906	37.07136239440983	82.17891025928715	31.750507455812617	31.042176666548354	3.437170197855459	17.477511433853238	1.6184067635821768	47.17020535468458	5.663677633492445	94.62102131929693	6.138221029588648	82.64502156448602	28.042218535029193	78.7161632972196	125.15893444509376	90.49104817666918	86.94921430606443
10.0	20.0	161.29487645484497	163.36717233788937	160.91111183320749	143.67729729850947	170.96107477377043	151.14117874754425	192.41287844238417	177.9315066720609	138.51722547306386	130.75696200762908	155.3072502681299	138.44100921218322	244.84939693501414	188.37152343982194	244.12505441943176	188.39811198974414	233.81198379686418	205.10797583946123	218.85225327232936	228.17868125232428	210.23721616260363	212.56774744032163
20.0	30.0	209.03396017176797	210.83588502579335	212.2746720086696	208.50757493327018	206.65918831609713	192.65976485833284	239.30639944402756	232.79408153504536	171.84505025828378	179.63685600430438	202.80832063534427	206.74715759069625	331.85300888289106	285.762502693935	307.5886572308235	285.67903031758715	297.28930036832503	276.2929201142974	276.45989399983233	281.36606665767226	262.307306908608	266.11072165791484
30.0	40.0	242.11534120829424	243.721128191936	246.41485830464626	244.2820024737255	235.094655249264	221.9555421374324	274.221638014687	269.5734851637256	197.38186274287258	209.11214022818643	234.67189703057062	243.91809187392744	383.7844913393226	336.1032497094844	352.2560681001274	334.9815904423267	341.4303812456664	321.0130119010172	317.06204581215593	320.8668424497718	300.08286169616946	305.0628019490486
40.0	50.0	269.4678636312456	270.7142167187663	274.659518541256	274.0410992200517	256.29565093815904	245.92741373193118	301.5799854947803	299.631874076429	218.33073936103844	234.11471639056828	260.90757395677156	274.5026077929639	425.0829448141201	376.9266403796968	387.0591415940631	374.5612266895258	376.2429314993532	357.3307457454906	348.96723842913667	350.8585049339718	329.4360033924137	335.5872325977476
50.0	60.0	288.0680096436686	288.8789797448722	294.00907253941676	295.00199250812744	269.32428564252575	261.82370837417847	319.0091201501291	319.9096559883863	231.98030320607126	251.46309163874747	278.54194915052983	296.4302820937045	452.29242050584566	405.7482987376661	408.9650532611615	401.97564989469004	398.6139811939779	382.0190615019351	369.2493532184134	369.38074592938403	347.8388775053887	355.0459337408532
60.0	80.0	305.82724614644053	306.37914333742157	311.99172135524134	313.1504608198731	284.1774351508255	277.4802429291313	336.78346375880585	338.85955335737435	245.1883472865375	266.80670030051516	294.52981970602457	314.99557492032585	475.6771846378856	430.0728430063228	429.74464731525546	424.02357425230304	420.02955992987216	404.11588963163575	388.54878561375574	388.8305538092993	365.9726785472776	374.43583831260594
80.0	100.0	324.8668875308593	325.08518116831965	331.0402748349576	331.5022434941003	299.8092195200597	294.3302487118835	355.39925674385813	358.7397482129513	259.31466894235257	282.79693081004615	311.17750520212036	333.715504667463	498.4433695499695	453.65431581908405	450.57125474881195	444.4880663764845	441.9082992870183	426.65696700637835	408.1152636054131	408.81351493781114	384.45813695654937	394.51360116633685
100.0	120.0	337.9196483366642	337.77394731157017	343.9580533967182	343.69972590759903	309.86373981089326	305.72603441681343	367.31858094899286	371.90357316868835	268.54672239673806	293.5598609917334	321.93618467363314	346.2434259666238	511.5368044454578	468.69033453191196	462.7173568501918	456.38977124763215	455.3704440326542	441.11800381496147	419.8466393990236	421.0592111634991	395.5761642515724	407.11985256308316
120.0	140.0	348.23604896537915	347.8456079027108	353.8733257916884	352.1318127286841	318.7782184229237	314.9591668552493	377.0458661701803	381.96142627266727	275.8933899330258	301.34617041803074	329.8856583675583	354.73008725452326	519.9575899680349	478.33729357546116	471.69595848438223	462.9638397994557	465.59993556757854	451.49172612352345	428.65220918031474	431.1487824561403	404.2301463992979	417.1403605209774
140.0	160.0	359.01529191146193	358.37131794643716	364.25767324979995	361.0111513260367	328.0060445919721	324.59991926545683	387.2273586702249	392.5270657254975	283.62224519798355	309.5503516741681	338.30400922235896	363.63409912080687	529.2012128134986	488.55529183824416	481.35877900080624	470.20830073734095	476.4584539688202	462.4820214666595	438.0536426355842	441.7582599548753	413.4223248025611	427.6889499459236
160.0	180.0	369.50230442838466	368.5790123500796	374.3781002140692	369.7640665672969	336.6704512869688	333.91694575744265	396.9225640303221	402.7762845398575	291.0588706205965	317.5973195743232	346.4717890460973	372.4598819501072	538.1429571520116	498.6783828375033	490.50097055813063	477.4440189276603	486.8106151534031	473.17660927314466	446.9887383112146	451.716969318453	422.11556784555364	437.723769213204
180.0	240.0	383.21957245623076	381.6904753132178	387.2609647711355	380.09359224723113	346.92061251938884	345.8696721609479	408.14001940050684	415.2535753610987	299.9666824363012	327.4638961886292	355.8300373628693	382.9802373577379	545.1714734690452	509.3059484255495	498.6076785213528	482.63285524910947	497.528769551402	485.16384008021004	455.6123302257122	462.1637156269138	430.70144333821514	448.774533932164
240.0	300.0	400.26708807350934	397.96384196619266	402.8520170758943	391.39529366896255	360.45858429641515	360.9614743133001	421.9845239466722	430.08940078846535	311.0094269102845	338.90037263904327	366.5974426254661	394.31315561532085	550.8399019517108	519.4131090664004	507.09311847226195	485.34767662535256	509.60346631351905	498.30394580065706	465.07538432180905	474.86053028357213	440.5430575121994	461.95970551448323
300.0	360.0	418.7428107627367	415.7159622453582	419.9998845964401	404.5606435322813	375.50323310935204	377.34458484387756	437.7925238689254	446.79525393050443	323.294148776948	351.7427705162256	379.1122217093187	407.5140705067984	560.8939217512485	532.7300799864314	519.1165370798482	492.2182974819203	524.6860552182906	514.1111569350319	477.47684274193324	490.2157936120905	453.03610301731396	477.5577851706182
360.0	420.0	436.24978449450833	432.5269666671424	436.23681483387674	417.07165336828587	389.72080649581125	392.8589321459809	452.75126443904395	462.6140020869368	334.91415129266426	363.9069349113812	390.98666794276687	420.0660105131132	570.9172913146887	545.5806516152558	530.7452152509446	499.36423798533775	539.0665079830525	529.1586673076702	489.36863169101036	504.78437731295946	464.96667554259045	492.3500250462927
420.0	480.0	457.1348749627462	452.7852504415104	455.9534841914239	433.1730930956099	407.52694848177407	411.5506152359669	471.8413439944742	482.33692699300155	349.500750144176	379.10855018250237	406.4047171558551	436.1699082478973	587.410425014391	563.6110488619166	548.1698079475443	512.296576555841	558.7792568231491	549.0197857846287	506.36403162500795	524.3892000853517	481.70756828735915	511.8152899691253
480.0	540.0	479.93734934888664	474.9345590159597	477.75193013443146	451.79444164493447	426.6044341279124	431.8399721598591	492.8917474862253	504.3490478150768	365.5112571996356	396.253368543018	423.8881285492717	454.91450715999537	608.0591429638129	585.5526469510227	568.716476730388	529.503898842162	581.4045169519463	571.9862100030509	526.0885374083548	546.2742283929678	500.84465118859634	533.6291835809685
540.0	660.0	506.8492230483349	500.8706544182845	503.0645187250701	472.52262371852316	448.44246430969656	455.67987263388403	516.5532490607948	529.3996694160224	383.79117046560856	415.7595637232235	443.3140651772529	475.802567356713	628.672933467751	608.8480209396794	589.9002925535958	546.3357316297154	605.7000515317603	597.1366107048932	546.8754413799803	570.0411093420846	521.2098753501175	557.6342809214847
660.0	780.0	535.6571708953022	528.4628708811151	529.7356318373472	493.43898505916536	471.45173846267284	481.15517492256197	540.9634660486066	555.3550821843071	402.8477487902636	435.8836535347489	463.0096775189108	496.85494589246065	647.6979276890243	631.3228858508901	610.1883901809774	561.4095968557928	629.7498430254379	622.2706846344128	567.136730041237	593.9422788741726	541.2701959951434	581.941525935543
780.0	900.0	552.6717076293041	544.3467151041046	544.637773091171	503.24876581029986	483.7330904640851	495.9571854637774	553.0966188697719	568.8505863417275	412.7785787957163	446.2179456493218	472.1976382141084	506.7584969751538	651.9162363303675	639.5528954271048	616.4357984502294	563.720133932947	639.4140544214663	633.3388818526847	574.3722862305159	604.200447120223	548.8821208792043	592.9834680477434
900.0	1020.0	565.1397907898054	555.8859052591056	555.1605459256394	509.240086080319	492.89450924609264	506.872221389096	561.543906887821	578.0577941479271	419.78311138549367	453.0716125389943	478.0990467940091	512.7097494016101	653.0697463821962	643.4671703585302	619.6994507934369	563.3044351026472	645.299238036327	640.0246052789461	578.524978708873	611.0358556653189	553.5331222492133	600.2986845206664
1020.0	1140.0	580.8701575620205	570.7949496762432	569.3536723981402	519.8106414032055	505.14506434510383	520.736379013982	574.195205111261	591.5592943401206	429.77310269574224	463.47513816616	488.1143049644718	523.3318169015441	662.6823599608822	654.5802562314003	629.8564713895728	571.0561366071896	657.3689880111652	652.6581563582412	588.6593052037176	623.16242656106	563.6039138704177	612.6747645772668
1140.0	1260.0	584.8696708063093	574.0048541370091	571.8434117951336	519.3048410313918	506.26969795128855	523.8887089523407	574.2304281088234	592.5435819085932	430.50802117973876	464.1525975243287	487.468532821472	522.9026871419471	656.2366433889985	651.1390620841127	624.9153245666578	564.9558991961025	654.4003712565762	650.9786849765942	584.9991418250327	620.9298512312296	560.5088898310613	611.3088913598123
1260.0	1380.0	577.5384626250351	566.0728141537617	562.9999915041053	507.82870749083486	497.99751443077145	517.0082591507557	563.0646004380975	581.6521714660755	422.8362899230542	455.32484028935176	476.85499120487657	511.3135340421631	635.3667034964716	633.3167156723713	606.9900086761575	545.7569885992231	638.0651827640554	635.6970792528757	569.298652643182	606.503366803079	546.0797523086628	597.7839038751207
1380.0	1500.0	573.5409178188162	561.6557900051298	557.9003915185584	500.8816699373416	493.4675655156344	513.2668440610405	556.6207008572833	575.2487612922948	418.41998200710617	450.054054523449	470.5539170705263	504.2528535380184	623.3844447194276	622.6059326983722	596.6727004114888	534.743620625767	628.5037754818786	626.561788346603	560.177570131095	598.1898261188173	537.7165714194464	589.8988738769327
1500.0	1800.0	564.1401409682858	551.7451305025478	547.2367496463046	488.5993195384414	483.470845558722	504.5138608884282	543.9577027981305	562.7700913383376	409.47380593957195	440.07725358297694	459.0496025040723	491.8911375858204	604.2843699774216	605.1521424576532	579.2506951665985	517.9529187868249	611.6486288759746	610.5156148328884	544.4451618869093	582.7850608359608	522.9602755273661	575.2482115238354
1800.0	2100.0	545.3331704292108	532.5927239550448	527.3127995106837	467.90294874512966	465.4587156077669	487.38460218374723	522.0994305282985	540.694924564407	393.66868928205326	422.60047800290175	439.73007799183273	471.0309229135361	574.9208867390472	577.2150668144661	552.0449152771804	492.3302009225498	584.3694389390384	583.9557156519934	519.495296898122	557.5326832783855	499.37611290427293	550.8259984453631
2100.0	2400.0	516.3133418996085	503.57009060422905	497.8074935188284	439.1947171266949	438.8082952095196	461.1049724672954	490.94634840618386	509.03974857409037	370.708914760671	397.6546989177884	412.75333503567566	442.14538780170403	535.807672001943	539.7204303484896	515.4046993305611	458.3382261143004	547.0983992805022	547.4770667673774	485.65228816350543	522.5506919208913	467.1763246028299	516.8053354867158
2400.0	2700.0	479.88757658135523	467.51422242203637	461.4836673247514	405.03753710729166	406.6123619253165	428.3724372683642	453.758607542546	470.79359288333427	343.04684404314617	367.5740372168562	380.793757448352	407.72264628728624	491.38094574788784	496.04888743042045	473.51450372514887	419.8251329258283	503.7129460151889	504.46880560395977	446.6422119012033	481.7092377512038	429.95380437471715	476.730985592773
2700.0	3000.0	462.4218703279442	450.58755961757817	444.84086178382745	391.16311335007464	392.33287325586497	412.8727113097016	438.06066928621163	454.1780860648313	330.9754443421049	354.61033140332694	367.8291778454457	393.71853416305396	477.6493768826813	480.37995079273514	459.3672177254798	408.68135276054	487.4531433075832	487.61112909952396	432.7420589466681	465.8881371882701	416.3398463764039	460.7198313172458
3000.0	3300.0	451.36340397240036	439.94405151371814	434.55263788966096	383.0654623184244	383.26240357143666	403.0293339495014	428.44038081104577	444.09218827443203	323.51573062719	346.8248769441927	360.1156317243176	385.5940921037778	469.7935327760421	471.5752467010604	451.0721897532968	402.4439214333744	477.8580616901978	477.76979148480666	424.5676825938348	456.3211866380045	408.25089833965126	451.08367572757874
3300.0	3600.0	429.42707461503755	418.3898226131004	413.0864660244638	363.4685797345138	364.09269933189114	383.3433681690731	406.706511050413	421.77790994157255	307.2715700976636	329.36766258763686	341.66558004197765	365.8836473819183	444.0650702392817	446.6746401020082	426.8461632412757	380.0997232313615	452.84286625780874	453.07506053779014	402.0593256241898	432.6116956492265	386.73881822719915	427.85219766521203
