start[seconds]	end[kBq/cc]	NAC.LModel	NAC.RModel	Striatum.LModel	Striatum.RModel	ACC.LModel	ACC.RModel	mPFC.LModel	mPFC.RModel	MCortex.LModel	MCortex.RModel	oFC.LModel	oFC.RModel	Midbrain.LModel	Midbrain.RModel	VTA.LModel	VTA.RModel	Thal.LModel	Thal.RModel	DMS.RModel	DMS.LModel	VLS.RModel	VLS.LModel	
0.0	10.0	28.958371723298185	0.0	7.063380106973295	0.09152155920564806	0.0	0.3751819577959253	91.7945889775482	46.403383584402576	0.0	3.359624875659915	3.820631136123241	0.47382465267561963	39.991514240323006	1.4858992487974325	3.8353426713988195	3.266166225627832	1.3008965196041282	1.0204683833466177	134.64486307091278	145.18391690463253	106.0299278384896	120.7299244769409
10.0	20.0	175.76050380162974	108.72776698462998	157.44296943017315	125.534338388653	67.39828839198611	123.49687517065996	152.61206958148367	205.12424454064043	33.82292879621219	134.41392396003204	150.54804562054773	140.3330392292094	252.1574528435257	174.5076801577704	183.18454070779222	183.4722403158198	168.7169392639198	162.92030348913164	247.2346304948669	251.47028610529946	199.43888900154792	212.72963263114178
20.0	30.0	229.3277716409099	201.22450402584036	219.13660086954323	209.00863829332	182.88922189995546	189.33005759810627	195.28106703007427	265.7546660891779	147.47806334804187	185.407718287303	217.59617758563925	228.3939602032089	341.7576025889374	289.89199517145397	283.3798548862649	293.8125160842954	281.51533196089036	273.7351141960478	301.2808671506631	302.69647214262756	263.6448091061601	272.92188918870227
30.0	40.0	264.6030783789382	247.82334382428212	255.0578216875964	252.13604292105117	227.34090205807763	225.27434102495081	229.02744447492515	305.3988552739365	187.0537279388346	215.75704239513078	253.43092927002738	272.58653192670675	394.32939731986187	346.01113833462074	334.5695226400033	346.3657028590799	335.5316414829475	327.20803090183335	340.6809049468807	342.5210865697515	311.88233754116493	319.9121326371746
40.0	50.0	293.1208081379635	281.9047290690419	284.7511407388732	284.96146574276764	259.4003736079431	253.6832597632392	250.7480531589848	336.683402164759	214.42207407084976	241.21476694471755	282.5540904069081	305.97478686155	435.4553636282224	389.9730777386955	375.4472266514418	387.43139575054084	377.4782828635859	368.94610696050836	369.5543967768012	371.35060050170534	340.5249208016739	349.5671779511869
50.0	60.0	311.8584156597007	307.54623564084443	305.4280279483578	308.95345238082314	284.2771531291823	274.11903010445354	265.5607303942448	356.5299453725315	236.49990945709715	258.7187970291783	302.2610391643492	329.6682445244984	461.7975539781732	421.9116769316597	404.3955792282037	415.97217778269885	407.62440643479897	399.28689266361465	385.9935233803504	388.4028609738989	358.86118631564227	368.2443283892309
60.0	80.0	328.4105376036549	328.2152649250144	323.5124093428446	328.03543732714127	303.8735544789341	290.5756099351924	283.318668152245	373.3741525103231	254.45271759379412	273.5381074971616	317.5417649124887	347.1922223790885	482.190022949281	448.12241770987765	428.01745697541287	437.25030142304865	431.26512263035823	423.6703345182021	401.63231230566396	406.0988639164203	379.18505153060056	389.4313194785244
80.0	100.0	345.16341625528383	346.87751914864845	341.8438440456142	345.44244721106975	320.8267357332243	306.32786244421885	300.67907123681766	389.55013959059266	270.60508962409574	288.5511025990559	331.7947526443357	362.1619954492796	500.52231854365704	472.37847077605454	450.1062500641341	455.7713610374133	452.6126683473878	446.2509362989746	416.3293630134797	423.53696799817	396.21407989241595	408.6158539105742
100.0	120.0	355.35852602970937	359.0065745917144	353.820403774482	356.2883869455479	331.54617792133627	316.3877120561124	311.1323136516256	398.13621136548966	281.2479170797838	298.1467122779471	339.6792057925824	370.210589694151	509.07853036226254	487.73991690998554	463.6372467193913	465.4385625610687	465.39328929131864	460.3756934637765	423.14586744048415	432.93916725983775	403.2688815888911	417.8915178819104
120.0	140.0	362.59880832042785	365.99873675422566	362.2792241028431	362.31314288278895	337.03648356084256	322.5408524550438	321.3502503442051	403.49461412423557	287.34776903264844	304.6248930827597	343.8179957315696	373.44072755850334	512.938569244242	496.7984922335281	471.532940607669	469.304710848071	472.1819263010436	468.48585203559526	428.17205344388435	440.6159506181308	410.51707590762214	426.82648125321714
140.0	160.0	370.5177852129032	373.29533152949006	371.2664406319809	368.75373217514016	342.7150211617595	329.22159605429744	331.79627142894066	409.68717280086685	293.3508494057099	311.5917302902281	348.676989135904	377.4243261950359	518.1150279673055	506.34391774064613	480.03194346609064	474.0364165059826	479.6430084430241	477.0816454418108	434.31511949250705	449.14345591521914	418.4887632627689	436.4306122634791
160.0	180.0	378.28812379837325	380.9196915026238	380.1055602164327	375.3857139119179	348.8274180348673	336.0455338031926	340.7097931059534	415.73874597949066	299.6403041624433	318.47033108698724	353.6423272317207	381.8136445210118	523.4378913517753	515.9726639715838	488.5505326660249	479.0488029058117	487.3760713152633	485.80179872329364	440.19549049784024	456.9953141332147	424.31229699246927	444.17384239261077
180.0	240.0	386.49593797737134	389.7100562008248	390.42068250714937	381.8930828631606	355.1805859987702	343.65972120476556	349.2230320094206	419.6419115237645	307.23768306860467	326.03097397348523	356.93605288721835	383.97121052719746	524.2636960886143	525.565759207636	496.25656017553047	480.21638411108984	494.06702798924965	494.20329015353065	443.3639680699527	463.1908787793766	423.75534463071426	447.41838821274393
240.0	300.0	396.09603925771745	398.2242644310978	402.1132214286695	387.1790297206622	360.46910058695494	351.77066329237687	361.66923681674484	423.04325725490474	314.0132339736599	334.29468253910807	359.16609454159726	384.0898744615097	522.7038330566625	533.5136702740454	502.2375174484983	477.6188140529115	498.9671623527596	500.90238566218693	447.6694332754238	471.0807691320717	426.0689841254961	453.2509827658147
300.0	360.0	408.90146644556944	410.1418067376127	416.1091055272539	395.8123993811291	369.1649993363438	362.8747820575319	376.7601481445194	431.00983533513323	322.85005083414177	344.6573510805491	365.4090067276596	389.44796175773183	528.5126337758545	545.2086762216065	512.0783306280968	480.9331579267064	508.81817474833537	511.4277116941207	457.776053042688	483.45120257038644	435.88229445700927	465.026548687962
360.0	420.0	421.9147969827312	422.48232019582855	429.7155717159135	404.80510252395044	378.53003220637726	374.3562850549833	391.69910905240414	439.8355654891179	331.69140204313015	354.8330222821512	372.54841057080046	396.34441631288234	536.2846409997927	556.7821522395661	521.9838238767395	485.7028581073601	519.5078368355996	522.0754935554863	468.9482113933318	496.13311172978	447.63810312051953	477.9208134662668
420.0	480.0	439.6525910971094	439.1384515888181	447.35257961128787	418.2298093793998	392.0434036915986	389.8941811751923	412.37780022560605	454.62598523178735	343.5080814407236	368.5660584859392	384.6821237462859	408.8830299922171	552.1406339344336	573.8888525107797	537.465610465556	497.2925932230972	536.291761705149	538.1703758989387	486.7964894574281	515.1717152140445	469.34679452187606	499.69874908870554
480.0	540.0	460.24474609242924	459.62941748747204	467.67663723221835	435.31283631809873	409.4655341660211	408.52742515898643	433.853499713547	473.00884232627016	358.36668661664913	384.6510403427231	400.25579391251114	425.7496787183274	573.1884624567748	595.5868847269763	557.2695274816676	514.0390279084487	557.965503508695	558.7801333939185	507.6424584805874	536.8592272176056	492.02892131247233	523.0984260096234
540.0	660.0	484.2957000017858	483.6156130647558	491.03929647344745	454.2294345016495	429.58583303139204	430.58148987307317	457.11030579591164	493.2091291992033	375.3585972689261	402.85622528390894	417.40415459708	444.4173511130717	595.1473670784756	618.4452556309179	577.8450687849398	530.5474508943292	581.6645108409448	580.7781841275743	530.0131833241933	560.1956223857459	512.7513890671811	545.9796378121619
660.0	780.0	510.6691527447732	509.5034187770424	515.7979591323627	473.7176555557637	451.09819135751724	454.8862919221294	481.5567092480541	514.7379938300174	392.95923949291563	421.91697764071415	435.51111675276644	464.23994838818464	617.4445892642033	640.4046665295409	597.5303970270197	546.0438037851258	605.8916697341883	602.4575350544698	553.132531102382	584.1488160967684	532.4498822891879	568.5102406952078
780.0	900.0	526.5307804859863	524.9591252300996	529.5633574294268	483.2390169888909	463.53415544045686	470.0446046567609	493.70517989661204	525.6746321281532	402.44674084937515	431.87861097478304	444.5612284144604	474.4664652227566	626.2171658105707	648.2060865703911	604.0166660039698	549.537927828342	617.1777744033942	611.1845772723592	563.4359991822437	594.6123279987437	536.3604199099274	575.456609617153
900.0	1020.0	539.764438039177	536.7703099255721	539.8987641131611	490.0078725724243	472.99356118575764	482.4474611220705	505.90033699716616	535.3321914071928	408.8252312295346	439.2153370566964	452.07694982817384	482.91809393688936	633.30294582448	651.8716626560529	607.1666844396592	551.2155508380524	625.0842080496565	616.4254713297927	571.8779076179811	602.9348948875917	543.7353269184022	584.0810164141343
1020.0	1140.0	558.0323183106286	554.1472091858942	555.0802357525565	502.90214515746936	488.15571895978314	499.6541567499652	523.8241168697571	551.9810882605268	419.81896692421026	450.87560002899943	465.6515770692079	498.2263842233307	649.4102802315969	663.7213284748286	618.3230601310792	561.943318358383	640.9296843944129	629.7423830170426	586.2495401429645	617.226770031632	559.6237332780452	601.1147795472311
1140.0	1260.0	564.4026019857446	560.2139138259842	558.7835275227163	504.9294912260671	493.30681372412295	506.6415923442339	526.8862645408984	555.8720578872969	422.6233579705509	452.89747204879313	468.43984252828074	501.8070282216187	648.73235057815	660.9147904563039	615.4754910967287	558.4199539281074	642.2548835983073	629.3860752105334	585.2938808889431	615.8744778602666	552.8715987631766	597.4182752781021
1260.0	1380.0	559.9237408275986	554.2537378967211	551.3622477113138	495.89643927112166	487.54537804959904	503.40473558258964	520.9997092990262	548.8589681651351	416.0034976913278	445.68973783105724	461.39458078128206	494.32641356314474	633.868674624327	643.1965151109877	598.8941767367245	541.7134962064557	629.231845074396	615.1577633799209	572.7930162415886	602.5380385974993	536.2948449467439	582.6053830774553
1380.0	1500.0	560.3669273825259	553.0433351202488	548.6066088834768	492.44268678296004	486.5828596877422	504.4156813637181	523.1629245590162	548.9539045860549	413.1770242954696	442.6697759397194	460.23794271887505	493.3508400820127	628.5057779639087	633.2732360853145	590.1135008868589	533.9488383421743	623.6824126170641	608.5395216671327	567.6110453365336	596.4788693562954	533.7466190609017	580.1137858065174
1500.0	1800.0	559.3144090195665	550.0322651020741	542.9363215737911	486.99183115693626	484.8931138032464	504.8629918319652	525.2491376658367	549.1959571942693	408.85405727886285	436.9207636978164	458.2595537484688	491.61652606290903	619.0776238412884	618.0396689540238	576.9048912518014	522.4288768748276	614.4197795436171	599.1856205088621	556.4557169167914	584.1720336135231	525.279965046624	573.1301585951932
1800.0	2100.0	552.0244624088622	539.6244404437106	530.3865569815075	475.4043446986564	477.4211861746696	499.8471016184168	525.0037475807603	545.7045728017744	399.37940148432153	425.28039359710834	451.5806052934931	484.19590927782986	600.3799631879236	593.4059275381553	555.7229108528533	502.9471631366257	595.933651849244	583.2188107261956	536.9252385672871	562.3289208341785	509.95039872968704	558.6595768715213
2100.0	2400.0	532.7934184254087	517.7105218883875	507.76755705679494	454.44318398626	459.7573643245894	483.8762417687057	513.306225554003	531.2446413051862	382.3906310004014	405.38254117976726	435.21557536067706	465.8309391433688	568.4326337773615	559.0349742491803	525.465001663487	473.3115139103587	565.2930293140743	557.9563727914784	504.3607650606311	529.0605184578884	476.5965035347823	529.4825050556518
2400.0	2700.0	505.23638604156815	487.46037548466484	477.85560270971496	427.05687124093214	434.7569376668582	459.95375968686034	496.350243230387	509.9016909859666	359.6920163756438	379.81554813163757	412.7930041816091	440.75926361297724	529.7015107185055	518.2775082488316	489.5987287450696	438.4163474006766	526.9042706604085	526.5591172765553	467.81704356689465	489.95016612891555	444.34001672063056	496.37260915793513
2700.0	3000.0	495.3823332534913	475.5149804572648	467.0142991651403	418.84636169617147	426.51246272548406	451.4016360579457	499.97574089918123	509.0379949297387	352.14111038838746	370.5251457806423	407.86493957903303	434.38633976886416	518.5266867880981	506.2661774007856	481.080401668447	429.79689584217937	513.9301878943282	521.8751775150747	454.6497426592683	475.8646611373658	441.31814789341	491.4093648917633
3000.0	3300.0	488.2623050657043	467.1784282540574	460.53639447021845	413.7924644515006	420.8233975628055	445.215514627917	503.01546152727303	509.47890743756983	347.92984918556596	364.69849255390596	404.3604583205237	429.2386856751044	509.7247916740178	500.559170048721	477.99953242760404	423.92589763193877	505.1328243255325	522.5046413407381	444.42632499731366	465.9636311693156	432.14455528654514	484.3361564195257
3300.0	3600.0	468.06338449627424	446.03143712042896	441.33305357823536	395.62465975609103	402.8701504075276	427.2694109724216	490.5464938210143	494.44884537278466	333.4022239095311	348.22819270320235	388.0489699129036	410.43380828390514	483.08577455140187	477.6313590765601	458.45364080394467	401.31104827172555	479.86624331938765	506.57554519483296	420.7788099716779	441.279669176542	406.47384095020726	458.6343267087813
